TStamp Europe/Copenhagen	SensorStamp	packageIndex	Value [au]
1576577764178	35668	0	0,000000
1576577764178	35668	1	-1,000000
1576577764178	35668	2	-3,000000
1576577764178	35668	3	-4,000000
1576577764178	35668	4	-5,000000
1576577764178	35668	5	-6,000000
1576577764178	35668	6	-9,000000
1576577764178	35668	7	-19,000000
1576577764178	35668	8	-7,000000
1576577764178	35668	9	3,000000
1576577764178	35668	10	-23,000000
1576577764178	35668	11	-49,000000
1576577764178	35668	12	-122,000000
1576577764178	35668	13	-98,000000
1576577764178	35668	14	-95,000000
1576577764178	35668	15	-39,000000
1576577764229	35730	0	5,000000
1576577764229	35730	1	-58,000000
1576577764229	35730	2	45,000000
1576577764229	35730	3	-141,000000
1576577764229	35730	4	120,000000
1576577764229	35730	5	-196,000000
1576577764229	35730	6	196,000000
1576577764229	35730	7	-2116,000000
1576577764229	35730	8	-3840,000000
1576577764229	35730	9	6125,000000
1576577764229	35730	10	11075,000000
1576577764229	35730	11	-3741,000000
1576577764229	35730	12	31002,000000
1576577764229	35730	13	1964,000000
1576577764229	35730	14	443,000000
1576577764229	35730	15	27787,000000
1576577764270	35793	0	-5877,000000
1576577764270	35793	1	11006,000000
1576577764270	35793	2	8720,000000
1576577764270	35793	3	-645,000000
1576577764270	35793	4	493,000000
1576577764270	35793	5	2847,000000
1576577764270	35793	6	1752,000000
1576577764270	35793	7	2357,000000
1576577764270	35793	8	2058,000000
1576577764270	35793	9	2122,000000
1576577764270	35793	10	2016,000000
1576577764270	35793	11	1948,000000
1576577764270	35793	12	1937,000000
1576577764270	35793	13	1797,000000
1576577764270	35793	14	1781,000000
1576577764270	35793	15	1676,000000
1576577764344	35855	0	1711,000000
1576577764344	35855	1	1722,000000
1576577764344	35855	2	1738,000000
1576577764344	35855	3	1707,000000
1576577764344	35855	4	1629,000000
1576577764344	35855	5	1587,000000
1576577764344	35855	6	1583,000000
1576577764344	35855	7	1608,000000
1576577764344	35855	8	1625,000000
1576577764344	35855	9	1602,000000
1576577764344	35855	10	1561,000000
1576577764344	35855	11	1536,000000
1576577764344	35855	12	1525,000000
1576577764344	35855	13	1508,000000
1576577764344	35855	14	1483,000000
1576577764344	35855	15	1455,000000
1576577764539	35918	0	1449,000000
1576577764539	35918	1	1453,000000
1576577764539	35918	2	1445,000000
1576577764539	35918	3	1410,000000
1576577764539	35918	4	1372,000000
1576577764539	35918	5	1353,000000
1576577764539	35918	6	1365,000000
1576577764539	35918	7	1373,000000
1576577764539	35918	8	1358,000000
1576577764539	35918	9	1330,000000
1576577764539	35918	10	1339,000000
1576577764539	35918	11	1389,000000
1576577764539	35918	12	1446,000000
1576577764539	35918	13	1450,000000
1576577764539	35918	14	1387,000000
1576577764539	35918	15	1306,000000
1576577764586	35980	0	1260,000000
1576577764586	35980	1	1244,000000
1576577764586	35980	2	1241,000000
1576577764586	35980	3	1233,000000
1576577764586	35980	4	1235,000000
1576577764586	35980	5	1251,000000
1576577764586	35980	6	1251,000000
1576577764586	35980	7	1208,000000
1576577764586	35980	8	1139,000000
1576577764586	35980	9	1078,000000
1576577764586	35980	10	1048,000000
1576577764586	35980	11	1027,000000
1576577764586	35980	12	989,000000
1576577764586	35980	13	922,000000
1576577764586	35980	14	863,000000
1576577764586	35980	15	834,000000
1576577764595	36043	0	811,000000
1576577764595	36043	1	781,000000
1576577764595	36043	2	728,000000
1576577764595	36043	3	675,000000
1576577764595	36043	4	658,000000
1576577764595	36043	5	687,000000
1576577764595	36043	6	731,000000
1576577764595	36043	7	763,000000
1576577764595	36043	8	777,000000
1576577764595	36043	9	777,000000
1576577764595	36043	10	770,000000
1576577764595	36043	11	764,000000
1576577764595	36043	12	755,000000
1576577764595	36043	13	762,000000
1576577764595	36043	14	783,000000
1576577764595	36043	15	805,000000
1576577764632	36105	0	803,000000
1576577764632	36105	1	777,000000
1576577764632	36105	2	821,000000
1576577764632	36105	3	1028,000000
1576577764632	36105	4	1410,000000
1576577764632	36105	5	1912,000000
1576577764632	36105	6	2434,000000
1576577764632	36105	7	2803,000000
1576577764632	36105	8	2865,000000
1576577764632	36105	9	2501,000000
1576577764632	36105	10	1595,000000
1576577764632	36105	11	182,000000
1576577764632	36105	12	-1458,000000
1576577764632	36105	13	-2814,000000
1576577764632	36105	14	-3402,000000
1576577764632	36105	15	-3032,000000
1576577764678	36168	0	-1924,000000
1576577764678	36168	1	-557,000000
1576577764678	36168	2	590,000000
1576577764678	36168	3	1296,000000
1576577764678	36168	4	1600,000000
1576577764678	36168	5	1625,000000
1576577764678	36168	6	1511,000000
1576577764678	36168	7	1385,000000
1576577764678	36168	8	1293,000000
1576577764678	36168	9	1204,000000
1576577764678	36168	10	1090,000000
1576577764678	36168	11	956,000000
1576577764678	36168	12	834,000000
1576577764678	36168	13	748,000000
1576577764678	36168	14	695,000000
1576577764678	36168	15	662,000000
1576577764732	36230	0	636,000000
1576577764732	36230	1	640,000000
1576577764732	36230	2	670,000000
1576577764732	36230	3	699,000000
1576577764732	36230	4	685,000000
1576577764732	36230	5	622,000000
1576577764732	36230	6	552,000000
1576577764732	36230	7	517,000000
1576577764732	36230	8	520,000000
1576577764732	36230	9	539,000000
1576577764732	36230	10	544,000000
1576577764732	36230	11	544,000000
1576577764732	36230	12	554,000000
1576577764732	36230	13	565,000000
1576577764732	36230	14	567,000000
1576577764732	36230	15	547,000000
1576577764777	36293	0	529,000000
1576577764777	36293	1	539,000000
1576577764777	36293	2	568,000000
1576577764777	36293	3	587,000000
1576577764777	36293	4	577,000000
1576577764777	36293	5	555,000000
1576577764777	36293	6	544,000000
1576577764777	36293	7	544,000000
1576577764777	36293	8	557,000000
1576577764777	36293	9	571,000000
1576577764777	36293	10	577,000000
1576577764777	36293	11	588,000000
1576577764777	36293	12	595,000000
1576577764777	36293	13	590,000000
1576577764777	36293	14	569,000000
1576577764777	36293	15	545,000000
1576577764856	36355	0	544,000000
1576577764856	36355	1	564,000000
1576577764856	36355	2	585,000000
1576577764856	36355	3	577,000000
1576577764856	36355	4	534,000000
1576577764856	36355	5	480,000000
1576577764856	36355	6	438,000000
1576577764856	36355	7	400,000000
1576577764856	36355	8	344,000000
1576577764856	36355	9	262,000000
1576577764856	36355	10	186,000000
1576577764856	36355	11	135,000000
1576577764856	36355	12	95,000000
1576577764856	36355	13	27,000000
1576577764856	36355	14	-67,000000
1576577764856	36355	15	-154,000000
1576577764903	36419	0	-201,000000
1576577764903	36419	1	-232,000000
1576577764903	36419	2	-287,000000
1576577764903	36419	3	-375,000000
1576577764903	36419	4	-460,000000
1576577764903	36419	5	-497,000000
1576577764903	36419	6	-489,000000
1576577764903	36419	7	-468,000000
1576577764903	36419	8	-463,000000
1576577764903	36419	9	-465,000000
1576577764903	36419	10	-434,000000
1576577764903	36419	11	-376,000000
1576577764903	36419	12	-316,000000
1576577764903	36419	13	-278,000000
1576577764903	36419	14	-251,000000
1576577764903	36419	15	-214,000000
1576577764951	36480	0	-162,000000
1576577764951	36480	1	-126,000000
1576577764951	36480	2	-119,000000
1576577764951	36480	3	-126,000000
1576577764951	36480	4	-92,000000
1576577764951	36480	5	-11,000000
1576577764951	36480	6	65,000000
1576577764951	36480	7	96,000000
1576577764951	36480	8	90,000000
1576577764951	36480	9	93,000000
1576577764951	36480	10	141,000000
1576577764951	36480	11	196,000000
1576577764951	36480	12	211,000000
1576577764951	36480	13	170,000000
1576577764951	36480	14	108,000000
1576577764951	36480	15	64,000000
1576577765134	36543	0	47,000000
1576577765134	36543	1	59,000000
1576577765134	36543	2	92,000000
1576577765134	36543	3	149,000000
1576577765134	36543	4	213,000000
1576577765134	36543	5	242,000000
1576577765134	36543	6	218,000000
1576577765134	36543	7	150,000000
1576577765134	36543	8	89,000000
1576577765134	36543	9	66,000000
1576577765134	36543	10	70,000000
1576577765134	36543	11	72,000000
1576577765134	36543	12	56,000000
1576577765134	36543	13	29,000000
1576577765134	36543	14	24,000000
1576577765134	36543	15	53,000000
1576577765190	36605	0	87,000000
1576577765190	36605	1	92,000000
1576577765190	36605	2	60,000000
1576577765190	36605	3	30,000000
1576577765190	36605	4	16,000000
1576577765190	36605	5	12,000000
1576577765190	36605	6	-4,000000
1576577765190	36605	7	-37,000000
1576577765190	36605	8	-52,000000
1576577765190	36605	9	-41,000000
1576577765190	36605	10	-22,000000
1576577765207	36668	0	28,000000
1576577765190	36605	11	-20,000000
1576577765207	36668	1	-34,000000
1576577765190	36605	12	-32,000000
1576577765207	36668	2	-71,000000
1576577765190	36605	13	-20,000000
1576577765207	36668	3	-46,000000
1576577765190	36605	14	27,000000
1576577765207	36668	4	11,000000
1576577765190	36605	15	58,000000
1576577765207	36668	5	38,000000
1576577765207	36668	6	16,000000
1576577765207	36668	7	-10,000000
1576577765207	36668	8	-11,000000
1576577765207	36668	9	13,000000
1576577765207	36668	10	23,000000
1576577765207	36668	11	4,000000
1576577765207	36668	12	-15,000000
1576577765207	36668	13	-7,000000
1576577765207	36668	14	10,000000
1576577765207	36668	15	15,000000
1576577765244	36731	0	-14,000000
1576577765244	36731	1	-44,000000
1576577765244	36731	2	-40,000000
1576577765244	36731	3	-5,000000
1576577765244	36731	4	34,000000
1576577765244	36731	5	44,000000
1576577765244	36731	6	29,000000
1576577765244	36731	7	24,000000
1576577765244	36731	8	32,000000
1576577765244	36731	9	36,000000
1576577765244	36731	10	9,000000
1576577765244	36731	11	-31,000000
1576577765244	36731	12	-40,000000
1576577765244	36731	13	-11,000000
1576577765244	36731	14	26,000000
1576577765244	36731	15	27,000000
1576577765302	36793	0	-16,000000
1576577765302	36793	1	-47,000000
1576577765302	36793	2	-40,000000
1576577765302	36793	3	-6,000000
1576577765302	36793	4	14,000000
1576577765302	36793	5	-5,000000
1576577765302	36793	6	-29,000000
1576577765302	36793	7	-25,000000
1576577765302	36793	8	-2,000000
1576577765302	36793	9	15,000000
1576577765302	36793	10	4,000000
1576577765302	36793	11	-23,000000
1576577765302	36793	12	-40,000000
1576577765302	36793	13	-47,000000
1576577765302	36793	14	-53,000000
1576577765302	36793	15	-67,000000
1576577765328	36855	0	-57,000000
1576577765328	36855	1	-14,000000
1576577765328	36855	2	30,000000
1576577765328	36855	3	33,000000
1576577765328	36855	4	-14,000000
1576577765328	36855	5	-61,000000
1576577765328	36855	6	-54,000000
1576577765328	36855	7	-6,000000
1576577765328	36855	8	23,000000
1576577765328	36855	9	-5,000000
1576577765328	36855	10	-52,000000
1576577765328	36855	11	-66,000000
1576577765328	36855	12	-37,000000
1576577765328	36855	13	-14,000000
1576577765328	36855	14	-36,000000
1576577765328	36855	15	-83,000000
1576577765399	36918	0	-106,000000
1576577765399	36918	1	-79,000000
1576577765399	36918	2	-37,000000
1576577765399	36918	3	-25,000000
1576577765399	36918	4	-28,000000
1576577765399	36918	5	-16,000000
1576577765399	36918	6	11,000000
1576577765399	36918	7	22,000000
1576577765399	36918	8	-2,000000
1576577765399	36918	9	-53,000000
1576577765399	36918	10	-93,000000
1576577765399	36918	11	-100,000000
1576577765399	36918	12	-71,000000
1576577765399	36918	13	-44,000000
1576577765399	36918	14	-29,000000
1576577765399	36918	15	-18,000000
1576577765480	36980	0	14,000000
1576577765480	36980	1	62,000000
1576577765480	36980	2	98,000000
1576577765480	36980	3	95,000000
1576577765480	36980	4	71,000000
1576577765480	36980	5	49,000000
1576577765480	36980	6	49,000000
1576577765480	36980	7	51,000000
1576577765480	36980	8	40,000000
1576577765480	36980	9	33,000000
1576577765480	36980	10	52,000000
1576577765480	36980	11	67,000000
1576577765480	36980	12	31,000000
1576577765480	36980	13	-46,000000
1576577765480	36980	14	-96,000000
1576577765480	36980	15	-70,000000
1576577765511	37043	0	-9,000000
1576577765511	37043	1	12,000000
1576577765511	37043	2	-46,000000
1576577765511	37043	3	-141,000000
1576577765511	37043	4	-205,000000
1576577765511	37043	5	-230,000000
1576577765511	37043	6	-248,000000
1576577765511	37043	7	-287,000000
1576577765511	37043	8	-315,000000
1576577765511	37043	9	-303,000000
1576577765511	37043	10	-269,000000
1576577765511	37043	11	-242,000000
1576577765511	37043	12	-246,000000
1576577765511	37043	13	-256,000000
1576577765511	37043	14	-238,000000
1576577765511	37043	15	-183,000000
1576577765605	37105	0	-121,000000
1576577765605	37105	1	-76,000000
1576577765605	37105	2	-60,000000
1576577765605	37105	3	-54,000000
1576577765605	37105	4	-44,000000
1576577765605	37105	5	-44,000000
1576577765605	37105	6	-56,000000
1576577765605	37105	7	-25,000000
1576577765605	37105	8	135,000000
1576577765605	37105	9	484,000000
1576577765605	37105	10	1000,000000
1576577765605	37105	11	1588,000000
1576577765605	37105	12	2116,000000
1576577765605	37105	13	2397,000000
1576577765605	37105	14	2261,000000
1576577765605	37105	15	1523,000000
1576577765698	37169	0	154,000000
1576577765698	37169	1	-1603,000000
1576577765698	37169	2	-3203,000000
1576577765698	37169	3	-4112,000000
1576577765698	37169	4	-4083,000000
1576577765698	37169	5	-3271,000000
1576577765698	37169	6	-2057,000000
1576577765698	37169	7	-847,000000
1576577765698	37169	8	90,000000
1576577765698	37169	9	668,000000
1576577765698	37169	10	902,000000
1576577765698	37169	11	877,000000
1576577765698	37169	12	763,000000
1576577765698	37169	13	668,000000
1576577765698	37169	14	606,000000
1576577765698	37169	15	523,000000
1576577765829	37230	0	400,000000
1576577765829	37230	1	267,000000
1576577765829	37230	2	174,000000
1576577765829	37230	3	118,000000
1576577765829	37230	4	81,000000
1576577765829	37230	5	50,000000
1576577765829	37230	6	41,000000
1576577765829	37230	7	90,000000
1576577765829	37230	8	179,000000
1576577765829	37230	9	242,000000
1576577765829	37230	10	225,000000
1576577765829	37230	11	135,000000
1576577765829	37230	12	40,000000
1576577765829	37230	13	-22,000000
1576577765829	37230	14	-46,000000
1576577765829	37230	15	-49,000000
1576577765859	37293	0	-42,000000
1576577765859	37293	1	-10,000000
1576577765859	37293	2	43,000000
1576577765859	37293	3	96,000000
1576577765859	37293	4	120,000000
1576577765859	37293	5	116,000000
1576577765859	37293	6	113,000000
1576577765859	37293	7	136,000000
1576577765859	37293	8	159,000000
1576577765859	37293	9	168,000000
1576577765859	37293	10	149,000000
1576577765859	37293	11	126,000000
1576577765859	37293	12	124,000000
1576577765859	37293	13	133,000000
1576577765859	37293	14	125,000000
1576577765859	37293	15	109,000000
1576577765873	37355	0	108,000000
1576577765873	37355	1	148,000000
1576577765873	37355	2	197,000000
1576577765873	37355	3	221,000000
1576577765873	37355	4	206,000000
1576577765873	37355	5	191,000000
1576577765873	37355	6	213,000000
1576577765873	37355	7	243,000000
1576577765873	37355	8	249,000000
1576577765873	37355	9	208,000000
1576577765873	37355	10	159,000000
1576577765873	37355	11	131,000000
1576577765873	37355	12	116,000000
1576577765873	37355	13	87,000000
1576577765873	37355	14	23,000000
1576577765873	37355	15	-57,000000
1576577765933	37418	0	-124,000000
1576577765933	37418	1	-174,000000
1576577765933	37418	2	-237,000000
1576577765933	37418	3	-328,000000
1576577765933	37418	4	-426,000000
1576577765933	37418	5	-502,000000
1576577765933	37418	6	-551,000000
1576577765933	37418	7	-597,000000
1576577765933	37418	8	-662,000000
1576577765933	37418	9	-737,000000
1576577765933	37418	10	-789,000000
1576577765933	37418	11	-799,000000
1576577765933	37418	12	-793,000000
1576577765933	37418	13	-792,000000
1576577765933	37418	14	-792,000000
1576577765933	37418	15	-773,000000
1576577765967	37480	0	-715,000000
1576577765967	37480	1	-653,000000
1576577765967	37480	2	-610,000000
1576577765967	37480	3	-596,000000
1576577765967	37480	4	-562,000000
1576577765967	37480	5	-485,000000
1576577765967	37480	6	-394,000000
1576577765967	37480	7	-353,000000
1576577765967	37480	8	-363,000000
1576577765967	37480	9	-381,000000
1576577765967	37480	10	-349,000000
1576577765967	37480	11	-269,000000
1576577765967	37480	12	-183,000000
1576577765967	37480	13	-119,000000
1576577765967	37480	14	-77,000000
1576577765967	37480	15	-46,000000
1576577766014	37543	0	-23,000000
1576577766014	37543	1	-29,000000
1576577766014	37543	2	-59,000000
1576577766014	37543	3	-84,000000
1576577766014	37543	4	-74,000000
1576577766014	37543	5	-43,000000
1576577766014	37543	6	-24,000000
1576577766014	37543	7	-31,000000
1576577766014	37543	8	-57,000000
1576577766014	37543	9	-83,000000
1576577766014	37543	10	-93,000000
1576577766014	37543	11	-82,000000
1576577766014	37543	12	-65,000000
1576577766014	37543	13	-60,000000
1576577766014	37543	14	-56,000000
1576577766014	37543	15	-67,000000
1576577766065	37605	0	-87,000000
1576577766065	37605	1	-108,000000
1576577766065	37605	2	-118,000000
1576577766065	37605	3	-117,000000
1576577766065	37605	4	-104,000000
1576577766065	37605	5	-93,000000
1576577766065	37605	6	-104,000000
1576577766065	37605	7	-152,000000
1576577766065	37605	8	-199,000000
1576577766065	37605	9	-211,000000
1576577766065	37605	10	-181,000000
1576577766065	37605	11	-136,000000
1576577766065	37605	12	-120,000000
1576577766065	37605	13	-139,000000
1576577766065	37605	14	-164,000000
1576577766065	37605	15	-174,000000
1576577766177	37668	0	-168,000000
1576577766177	37668	1	-164,000000
1576577766177	37668	2	-166,000000
1576577766177	37668	3	-160,000000
1576577766177	37668	4	-142,000000
1576577766177	37668	5	-123,000000
1576577766177	37668	6	-125,000000
1576577766177	37668	7	-130,000000
1576577766177	37668	8	-133,000000
1576577766177	37668	9	-128,000000
1576577766177	37668	10	-118,000000
1576577766177	37668	11	-116,000000
1576577766177	37668	12	-120,000000
1576577766177	37668	13	-117,000000
1576577766177	37668	14	-104,000000
1576577766177	37668	15	-101,000000
1576577766218	37730	0	-112,000000
1576577766218	37730	1	-128,000000
1576577766218	37730	2	-134,000000
1576577766218	37730	3	-125,000000
1576577766218	37730	4	-117,000000
1576577766218	37730	5	-122,000000
1576577766218	37730	6	-130,000000
1576577766218	37730	7	-128,000000
1576577766218	37730	8	-117,000000
1576577766218	37730	9	-99,000000
1576577766218	37730	10	-84,000000
1576577766218	37730	11	-82,000000
1576577766218	37730	12	-80,000000
1576577766218	37730	13	-79,000000
1576577766218	37730	14	-87,000000
1576577766218	37730	15	-98,000000
1576577766247	37793	0	-101,000000
1576577766247	37793	1	-88,000000
1576577766247	37793	2	-73,000000
1576577766247	37793	3	-74,000000
1576577766247	37793	4	-98,000000
1576577766247	37793	5	-128,000000
1576577766247	37793	6	-140,000000
1576577766247	37793	7	-129,000000
1576577766247	37793	8	-104,000000
1576577766247	37793	9	-96,000000
1576577766247	37793	10	-104,000000
1576577766247	37793	11	-101,000000
1576577766247	37793	12	-85,000000
1576577766247	37793	13	-61,000000
1576577766247	37793	14	-56,000000
1576577766247	37793	15	-72,000000
1576577766367	37855	0	-93,000000
1576577766367	37855	1	-100,000000
1576577766367	37855	2	-94,000000
1576577766367	37855	3	-86,000000
1576577766367	37855	4	-94,000000
1576577766367	37855	5	-109,000000
1576577766367	37855	6	-104,000000
1576577766367	37855	7	-67,000000
1576577766367	37855	8	-20,000000
1576577766367	37855	9	16,000000
1576577766367	37855	10	29,000000
1576577766367	37855	11	25,000000
1576577766367	37855	12	18,000000
1576577766367	37855	13	8,000000
1576577766367	37855	14	-2,000000
1576577766367	37855	15	-7,000000
1576577766458	37918	0	7,000000
1576577766458	37918	1	34,000000
1576577766458	37918	2	54,000000
1576577766458	37918	3	46,000000
1576577766458	37918	4	17,000000
1576577766458	37918	5	-15,000000
1576577766458	37918	6	-40,000000
1576577766458	37918	7	-72,000000
1576577766458	37918	8	-112,000000
1576577766458	37918	9	-149,000000
1576577766458	37918	10	-168,000000
1576577766458	37918	11	-172,000000
1576577766458	37918	12	-181,000000
1576577766458	37918	13	-212,000000
1576577766458	37918	14	-256,000000
1576577766458	37918	15	-302,000000
1576577766500	37980	0	-329,000000
1576577766500	37980	1	-334,000000
1576577766500	37980	2	-329,000000
1576577766500	37980	3	-306,000000
1576577766500	37980	4	-273,000000
1576577766500	37980	5	-224,000000
1576577766500	37980	6	-175,000000
1576577766500	37980	7	-152,000000
1576577766500	37980	8	-161,000000
1576577766500	37980	9	-171,000000
1576577766500	37980	10	-164,000000
1576577766500	37980	11	-128,000000
1576577766500	37980	12	-94,000000
1576577766500	37980	13	-77,000000
1576577766500	37980	14	-84,000000
1576577766500	37980	15	-61,000000
1576577766514	38043	0	57,000000
1576577766514	38043	1	328,000000
1576577766514	38043	2	758,000000
1576577766514	38043	3	1303,000000
1576577766514	38043	4	1846,000000
1576577766514	38043	5	2167,000000
1576577766514	38043	6	2065,000000
1576577766514	38043	7	1426,000000
1576577766514	38043	8	251,000000
1576577766514	38043	9	-1268,000000
1576577766514	38043	10	-2752,000000
1576577766514	38043	11	-3783,000000
1576577766514	38043	12	-4042,000000
1576577766514	38043	13	-3496,000000
1576577766514	38043	14	-2384,000000
1576577766514	38043	15	-1090,000000
1576577766610	38105	0	0,000000
1576577766610	38105	1	691,000000
1576577766610	38105	2	994,000000
1576577766610	38105	3	1007,000000
1576577766610	38105	4	895,000000
1576577766610	38105	5	759,000000
1576577766610	38105	6	651,000000
1576577766610	38105	7	558,000000
1576577766610	38105	8	480,000000
1576577766610	38105	9	402,000000
1576577766610	38105	10	293,000000
1576577766610	38105	11	181,000000
1576577766610	38105	12	90,000000
1576577766610	38105	13	61,000000
1576577766610	38105	14	86,000000
1576577766610	38105	15	116,000000
1576577766656	38169	0	119,000000
1576577766656	38169	1	87,000000
1576577766656	38169	2	45,000000
1576577766656	38169	3	21,000000
1576577766656	38169	4	3,000000
1576577766656	38169	5	-9,000000
1576577766656	38169	6	-16,000000
1576577766656	38169	7	-4,000000
1576577766656	38169	8	32,000000
1576577766656	38169	9	79,000000
1576577766656	38169	10	114,000000
1576577766656	38169	11	118,000000
1576577766656	38169	12	95,000000
1576577766656	38169	13	71,000000
1576577766656	38169	14	65,000000
1576577766656	38169	15	67,000000
1576577766697	38230	0	55,000000
1576577766697	38230	1	42,000000
1576577766697	38230	2	55,000000
1576577766697	38230	3	100,000000
1576577766697	38230	4	159,000000
1576577766697	38230	5	186,000000
1576577766697	38230	6	171,000000
1576577766697	38230	7	152,000000
1576577766697	38230	8	157,000000
1576577766697	38230	9	180,000000
1576577766697	38230	10	198,000000
1576577766697	38230	11	192,000000
1576577766697	38230	12	178,000000
1576577766697	38230	13	184,000000
1576577766697	38230	14	197,000000
1576577766697	38230	15	203,000000
1576577766775	38293	0	196,000000
1576577766775	38293	1	182,000000
1576577766775	38293	2	167,000000
1576577766775	38293	3	144,000000
1576577766775	38293	4	104,000000
1576577766775	38293	5	45,000000
1576577766775	38293	6	-16,000000
1576577766775	38293	7	-79,000000
1576577766775	38293	8	-150,000000
1576577766775	38293	9	-236,000000
1576577766775	38293	10	-326,000000
1576577766775	38293	11	-406,000000
1576577766775	38293	12	-465,000000
1576577766775	38293	13	-527,000000
1576577766775	38293	14	-609,000000
1576577766775	38293	15	-703,000000
1576577766947	38355	0	-783,000000
1576577766947	38355	1	-821,000000
1576577766947	38355	2	-824,000000
1576577766947	38355	3	-824,000000
1576577766947	38355	4	-829,000000
1576577766947	38355	5	-831,000000
1576577766947	38355	6	-804,000000
1576577766947	38355	7	-749,000000
1576577766947	38355	8	-683,000000
1576577766947	38355	9	-636,000000
1576577766947	38355	10	-599,000000
1576577766947	38355	11	-556,000000
1576577766947	38355	12	-497,000000
1576577766947	38355	13	-435,000000
1576577766947	38355	14	-402,000000
1576577766947	38355	15	-401,000000
1576577766954	38418	0	-398,000000
1576577766954	38418	1	-360,000000
1576577766954	38418	2	-285,000000
1576577766954	38418	3	-202,000000
1576577766954	38418	4	-139,000000
1576577766954	38418	5	-95,000000
1576577766954	38418	6	-62,000000
1576577766954	38418	7	-46,000000
1576577766954	38418	8	-52,000000
1576577766954	38418	9	-78,000000
1576577766954	38418	10	-105,000000
1576577766954	38418	11	-99,000000
1576577766954	38418	12	-72,000000
1576577766954	38418	13	-57,000000
1576577766954	38418	14	-60,000000
1576577766954	38418	15	-65,000000
1576577767150	38480	0	-59,000000
1576577767150	38480	1	-49,000000
1576577767150	38480	2	-52,000000
1576577767150	38480	3	-65,000000
1576577767150	38480	4	-77,000000
1576577767150	38480	5	-75,000000
1576577767150	38480	6	-75,000000
1576577767150	38480	7	-86,000000
1576577767150	38480	8	-116,000000
1576577767150	38480	9	-136,000000
1576577767150	38480	10	-127,000000
1576577767150	38480	11	-96,000000
1576577767150	38480	12	-82,000000
1576577767150	38480	13	-92,000000
1576577767150	38480	14	-117,000000
1576577767150	38480	15	-128,000000
1576577767175	38543	0	-117,000000
1576577767175	38543	1	-102,000000
1576577767175	38543	2	-110,000000
1576577767175	38543	3	-143,000000
1576577767175	38543	4	-176,000000
1576577767175	38543	5	-185,000000
1576577767175	38543	6	-176,000000
1576577767175	38543	7	-167,000000
1576577767175	38543	8	-161,000000
1576577767175	38543	9	-153,000000
1576577767175	38543	10	-145,000000
1576577767175	38543	11	-138,000000
1576577767175	38543	12	-151,000000
1576577767175	38543	13	-167,000000
1576577767175	38543	14	-165,000000
1576577767175	38543	15	-138,000000
1576577767209	38605	0	-105,000000
1576577767209	38605	1	-93,000000
1576577767209	38605	2	-104,000000
1576577767209	38605	3	-121,000000
1576577767209	38605	4	-125,000000
1576577767209	38605	5	-120,000000
1576577767209	38605	6	-118,000000
1576577767209	38605	7	-126,000000
1576577767209	38605	8	-133,000000
1576577767209	38605	9	-125,000000
1576577767209	38605	10	-113,000000
1576577767209	38605	11	-112,000000
1576577767209	38605	12	-126,000000
1576577767209	38605	13	-137,000000
1576577767209	38605	14	-124,000000
1576577767209	38605	15	-96,000000
1576577767233	38668	0	-73,000000
1576577767233	38668	1	-79,000000
1576577767233	38668	2	-105,000000
1576577767233	38668	3	-123,000000
1576577767233	38668	4	-127,000000
1576577767233	38668	5	-116,000000
1576577767233	38668	6	-110,000000
1576577767233	38668	7	-106,000000
1576577767233	38668	8	-100,000000
1576577767233	38668	9	-97,000000
1576577767233	38668	10	-97,000000
1576577767233	38668	11	-106,000000
1576577767233	38668	12	-118,000000
1576577767233	38668	13	-118,000000
1576577767233	38668	14	-110,000000
1576577767233	38668	15	-104,000000
1576577767239	38730	0	-115,000000
1576577767239	38730	1	-130,000000
1576577767239	38730	2	-132,000000
1576577767239	38730	3	-109,000000
1576577767239	38730	4	-82,000000
1576577767239	38730	5	-72,000000
1576577767239	38730	6	-83,000000
1576577767239	38730	7	-92,000000
1576577767239	38730	8	-89,000000
1576577767239	38730	9	-86,000000
1576577767239	38730	10	-96,000000
1576577767239	38730	11	-120,000000
1576577767239	38730	12	-128,000000
1576577767239	38730	13	-110,000000
1576577767239	38730	14	-86,000000
1576577767239	38730	15	-78,000000
1576577767285	38793	0	-77,000000
1576577767285	38793	1	-51,000000
1576577767285	38793	2	16,000000
1576577767285	38793	3	81,000000
1576577767285	38793	4	106,000000
1576577767285	38793	5	70,000000
1576577767285	38793	6	4,000000
1576577767285	38793	7	-34,000000
1576577767285	38793	8	-35,000000
1576577767285	38793	9	-15,000000
1576577767285	38793	10	2,000000
1576577767285	38793	11	1,000000
1576577767285	38793	12	2,000000
1576577767285	38793	13	10,000000
1576577767285	38793	14	3,000000
1576577767285	38793	15	-32,000000
1576577767313	38855	0	-84,000000
1576577767313	38855	1	-123,000000
1576577767313	38855	2	-138,000000
1576577767313	38855	3	-146,000000
1576577767313	38855	4	-172,000000
1576577767313	38855	5	-221,000000
1576577767313	38855	6	-262,000000
1576577767313	38855	7	-277,000000
1576577767313	38855	8	-278,000000
1576577767313	38855	9	-293,000000
1576577767313	38855	10	-322,000000
1576577767313	38855	11	-341,000000
1576577767313	38855	12	-325,000000
1576577767313	38855	13	-282,000000
1576577767313	38855	14	-238,000000
1576577767313	38855	15	-214,000000
1576577767397	38918	0	-207,000000
1576577767397	38918	1	-197,000000
1576577767397	38918	2	-179,000000
1576577767397	38918	3	-157,000000
1576577767397	38918	4	-138,000000
1576577767397	38918	5	-118,000000
1576577767397	38918	6	-94,000000
1576577767397	38918	7	-86,000000
1576577767397	38918	8	-94,000000
1576577767397	38918	9	-64,000000
1576577767397	38918	10	98,000000
1576577767397	38918	11	450,000000
1576577767397	38918	12	965,000000
1576577767397	38918	13	1540,000000
1576577767397	38918	14	1982,000000
1576577767397	38918	15	2104,000000
1576577767469	38980	0	1820,000000
1576577767469	38980	1	1038,000000
1576577767469	38980	2	-246,000000
1576577767469	38980	3	-1849,000000
1576577767469	38980	4	-3329,000000
1576577767469	38980	5	-4138,000000
1576577767469	38980	6	-3968,000000
1576577767469	38980	7	-2927,000000
1576577767469	38980	8	-1500,000000
1576577767469	38980	9	-236,000000
1576577767469	38980	10	562,000000
1576577767469	38980	11	913,000000
1576577767469	38980	12	958,000000
1576577767469	38980	13	858,000000
1576577767469	38980	14	734,000000
1576577767469	38980	15	639,000000
1576577767504	39043	0	566,000000
1576577767504	39043	1	472,000000
1576577767504	39043	2	357,000000
1576577767504	39043	3	234,000000
1576577767504	39043	4	135,000000
1576577767504	39043	5	69,000000
1576577767504	39043	6	38,000000
1576577767504	39043	7	31,000000
1576577767504	39043	8	46,000000
1576577767504	39043	9	87,000000
1576577767504	39043	10	132,000000
1576577767504	39043	11	148,000000
1576577767504	39043	12	114,000000
1576577767504	39043	13	34,000000
1576577767504	39043	14	-46,000000
1576577767504	39043	15	-85,000000
1576577767605	39105	0	-62,000000
1576577767605	39105	1	-12,000000
1576577767605	39105	2	38,000000
1576577767605	39105	3	63,000000
1576577767605	39105	4	80,000000
1576577767605	39105	5	88,000000
1576577767605	39105	6	82,000000
1576577767605	39105	7	59,000000
1576577767605	39105	8	40,000000
1576577767605	39105	9	58,000000
1576577767605	39105	10	105,000000
1576577767605	39105	11	145,000000
1576577767605	39105	12	146,000000
1576577767605	39105	13	126,000000
1576577767605	39105	14	128,000000
1576577767605	39105	15	152,000000
1576577767663	39168	0	171,000000
1576577767663	39168	1	157,000000
1576577767663	39168	2	128,000000
1576577767663	39168	3	123,000000
1576577767663	39168	4	155,000000
1576577767663	39168	5	188,000000
1576577767663	39168	6	198,000000
1576577767663	39168	7	188,000000
1576577767663	39168	8	188,000000
1576577767663	39168	9	208,000000
1576577767663	39168	10	220,000000
1576577767663	39168	11	199,000000
1576577767663	39168	12	151,000000
1576577767663	39168	13	96,000000
1576577767663	39168	14	46,000000
1576577767663	39168	15	-3,000000
1576577767770	39230	0	-64,000000
1576577767770	39230	1	-147,000000
1576577767770	39230	2	-223,000000
1576577767770	39230	3	-281,000000
1576577767770	39230	4	-330,000000
1576577767770	39230	5	-393,000000
1576577767770	39230	6	-484,000000
1576577767770	39230	7	-577,000000
1576577767770	39230	8	-643,000000
1576577767770	39230	9	-679,000000
1576577767770	39230	10	-709,000000
1576577767770	39230	11	-755,000000
1576577767770	39230	12	-795,000000
1576577767770	39230	13	-810,000000
1576577767770	39230	14	-785,000000
1576577767770	39230	15	-754,000000
1576577767810	39293	0	-735,000000
1576577767810	39293	1	-725,000000
1576577767810	39293	2	-693,000000
1576577767810	39293	3	-635,000000
1576577767810	39293	4	-565,000000
1576577767810	39293	5	-507,000000
1576577767810	39293	6	-464,000000
1576577767810	39293	7	-423,000000
1576577767810	39293	8	-377,000000
1576577767810	39293	9	-346,000000
1576577767810	39293	10	-321,000000
1576577767810	39293	11	-302,000000
1576577767810	39293	12	-254,000000
1576577767810	39293	13	-177,000000
1576577767810	39293	14	-105,000000
1576577767810	39293	15	-68,000000
1576577767854	39355	0	-64,000000
1576577767854	39355	1	-69,000000
1576577767854	39355	2	-72,000000
1576577767854	39355	3	-77,000000
1576577767854	39355	4	-96,000000
1576577767854	39355	5	-123,000000
1576577767854	39355	6	-138,000000
1576577767854	39355	7	-120,000000
1576577767854	39355	8	-82,000000
1576577767854	39355	9	-64,000000
1576577767854	39355	10	-64,000000
1576577767854	39355	11	-54,000000
1576577767854	39355	12	-28,000000
1576577767854	39355	13	-4,000000
1576577767854	39355	14	-17,000000
1576577767854	39355	15	-74,000000
1576577767902	39418	0	-136,000000
1576577767902	39418	1	-165,000000
1576577767902	39418	2	-152,000000
1576577767902	39418	3	-125,000000
1576577767902	39418	4	-115,000000
1576577767902	39418	5	-115,000000
1576577767902	39418	6	-108,000000
1576577767902	39418	7	-104,000000
1576577767902	39418	8	-112,000000
1576577767902	39418	9	-131,000000
1576577767902	39418	10	-148,000000
1576577767902	39418	11	-145,000000
1576577767902	39418	12	-132,000000
1576577767902	39418	13	-135,000000
1576577767902	39418	14	-163,000000
1576577767902	39418	15	-193,000000
1576577767953	39480	0	-201,000000
1576577767953	39480	1	-178,000000
1576577767953	39480	2	-158,000000
1576577767953	39480	3	-156,000000
1576577767953	39480	4	-168,000000
1576577767953	39480	5	-165,000000
1576577767953	39480	6	-151,000000
1576577767953	39480	7	-138,000000
1576577767953	39480	8	-141,000000
1576577767953	39480	9	-153,000000
1576577767953	39480	10	-152,000000
1576577767953	39480	11	-134,000000
1576577767953	39480	12	-119,000000
1576577767953	39480	13	-122,000000
1576577767953	39480	14	-138,000000
1576577767953	39480	15	-147,000000
1576577768001	39543	0	-141,000000
1576577768001	39543	1	-134,000000
1576577768001	39543	2	-130,000000
1576577768001	39543	3	-134,000000
1576577768001	39543	4	-132,000000
1576577768001	39543	5	-116,000000
1576577768001	39543	6	-96,000000
1576577768001	39543	7	-93,000000
1576577768001	39543	8	-109,000000
1576577768001	39543	9	-126,000000
1576577768001	39543	10	-126,000000
1576577768001	39543	11	-120,000000
1576577768001	39543	12	-122,000000
1576577768001	39543	13	-130,000000
1576577768001	39543	14	-140,000000
1576577768001	39543	15	-139,000000
1576577768077	39605	0	-125,000000
1576577768077	39605	1	-103,000000
1576577768077	39605	2	-91,000000
1576577768077	39605	3	-84,000000
1576577768077	39605	4	-89,000000
1576577768077	39605	5	-99,000000
1576577768077	39605	6	-112,000000
1576577768077	39605	7	-129,000000
1576577768077	39605	8	-132,000000
1576577768077	39605	9	-121,000000
1576577768077	39605	10	-99,000000
1576577768077	39605	11	-90,000000
1576577768077	39605	12	-102,000000
1576577768077	39605	13	-115,000000
1576577768077	39605	14	-105,000000
1576577768077	39605	15	-72,000000
1576577768179	39668	0	-55,000000
1576577768179	39668	1	-74,000000
1576577768179	39668	2	-118,000000
1576577768179	39668	3	-143,000000
1576577768179	39668	4	-131,000000
1576577768179	39668	5	-100,000000
1576577768179	39668	6	-89,000000
1576577768179	39668	7	-104,000000
1576577768179	39668	8	-118,000000
1576577768179	39668	9	-107,000000
1576577768179	39668	10	-85,000000
1576577768179	39668	11	-75,000000
1576577768179	39668	12	-89,000000
1576577768179	39668	13	-103,000000
1576577768179	39668	14	-99,000000
1576577768179	39668	15	-79,000000
1576577768216	39730	0	-53,000000
1576577768216	39730	1	-30,000000
1576577768216	39730	2	-1,000000
1576577768216	39730	3	45,000000
1576577768216	39730	4	82,000000
1576577768216	39730	5	76,000000
1576577768216	39730	6	27,000000
1576577768216	39730	7	-28,000000
1576577768216	39730	8	-51,000000
1576577768216	39730	9	-42,000000
1576577768216	39730	10	-21,000000
1576577768216	39730	11	-5,000000
1576577768216	39730	12	7,000000
1576577768216	39730	13	11,000000
1576577768216	39730	14	1,000000
1576577768216	39730	15	-39,000000
1576577768306	39793	0	-101,000000
1576577768306	39793	1	-152,000000
1576577768306	39793	2	-166,000000
1576577768306	39793	3	-162,000000
1576577768306	39793	4	-169,000000
1576577768306	39793	5	-208,000000
1576577768306	39793	6	-257,000000
1576577768306	39793	7	-294,000000
1576577768306	39793	8	-318,000000
1576577768306	39793	9	-341,000000
1576577768306	39793	10	-359,000000
1576577768306	39793	11	-353,000000
1576577768306	39793	12	-306,000000
1576577768306	39793	13	-244,000000
1576577768306	39793	14	-200,000000
1576577768306	39793	15	-198,000000
1576577768322	39855	0	-220,000000
1576577768322	39855	1	-224,000000
1576577768322	39855	2	-185,000000
1576577768322	39855	3	-132,000000
1576577768322	39855	4	-102,000000
1576577768322	39855	5	-103,000000
1576577768322	39855	6	-112,000000
1576577768322	39855	7	-104,000000
1576577768322	39855	8	-69,000000
1576577768322	39855	9	31,000000
1576577768322	39855	10	231,000000
1576577768322	39855	11	581,000000
1576577768322	39855	12	1088,000000
1576577768322	39855	13	1664,000000
1576577768322	39855	14	2096,000000
1576577768322	39855	15	2173,000000
1576577768398	39918	0	1757,000000
1576577768398	39918	1	770,000000
1576577768398	39918	2	-720,000000
1576577768398	39918	3	-2408,000000
1576577768398	39918	4	-3771,000000
1576577768398	39918	5	-4294,000000
1576577768398	39918	6	-3801,000000
1576577768398	39918	7	-2546,000000
1576577768398	39918	8	-1087,000000
1576577768398	39918	9	63,000000
1576577768398	39918	10	711,000000
1576577768398	39918	11	959,000000
1576577768398	39918	12	952,000000
1576577768398	39918	13	842,000000
1576577768398	39918	14	712,000000
1576577768398	39918	15	604,000000
1576577768467	39980	0	511,000000
1576577768467	39980	1	430,000000
1576577768467	39980	2	349,000000
1576577768467	39980	3	257,000000
1576577768467	39980	4	144,000000
1576577768467	39980	5	47,000000
1576577768467	39980	6	-12,000000
1576577768467	39980	7	-12,000000
1576577768467	39980	8	24,000000
1576577768467	39980	9	68,000000
1576577768467	39980	10	103,000000
1576577768467	39980	11	119,000000
1576577768467	39980	12	107,000000
1576577768467	39980	13	65,000000
1576577768467	39980	14	5,000000
1576577768467	39980	15	-35,000000
1576577768511	40043	0	-34,000000
1576577768511	40043	1	-8,000000
1576577768511	40043	2	17,000000
1576577768511	40043	3	22,000000
1576577768511	40043	4	25,000000
1576577768511	40043	5	41,000000
1576577768511	40043	6	73,000000
1576577768511	40043	7	94,000000
1576577768511	40043	8	97,000000
1576577768511	40043	9	88,000000
1576577768511	40043	10	88,000000
1576577768511	40043	11	107,000000
1576577768511	40043	12	130,000000
1576577768511	40043	13	137,000000
1576577768511	40043	14	132,000000
1576577768511	40043	15	126,000000
1576577768611	40105	0	126,000000
1576577768611	40105	1	128,000000
1576577768611	40105	2	123,000000
1576577768611	40105	3	116,000000
1576577768611	40105	4	124,000000
1576577768611	40105	5	157,000000
1576577768611	40105	6	190,000000
1576577768611	40105	7	202,000000
1576577768611	40105	8	183,000000
1576577768611	40105	9	160,000000
1576577768611	40105	10	152,000000
1576577768611	40105	11	144,000000
1576577768611	40105	12	127,000000
1576577768611	40105	13	86,000000
1576577768611	40105	14	33,000000
1576577768611	40105	15	-15,000000
1576577768659	40168	0	-64,000000
1576577768659	40168	1	-132,000000
1576577768659	40168	2	-223,000000
1576577768659	40168	3	-322,000000
1576577768659	40168	4	-393,000000
1576577768659	40168	5	-435,000000
1576577768659	40168	6	-474,000000
1576577768659	40168	7	-527,000000
1576577768659	40168	8	-590,000000
1576577768659	40168	9	-645,000000
1576577768659	40168	10	-690,000000
1576577768659	40168	11	-734,000000
1576577768659	40168	12	-776,000000
1576577768659	40168	13	-800,000000
1576577768659	40168	14	-790,000000
1576577768659	40168	15	-744,000000
1576577768698	40230	0	-698,000000
1576577768698	40230	1	-674,000000
1576577768698	40230	2	-652,000000
1576577768698	40230	3	-603,000000
1576577768698	40230	4	-530,000000
1576577768698	40230	5	-464,000000
1576577768698	40230	6	-424,000000
1576577768698	40230	7	-415,000000
1576577768698	40230	8	-399,000000
1576577768698	40230	9	-366,000000
1576577768698	40230	10	-318,000000
1576577768698	40230	11	-265,000000
1576577768698	40230	12	-205,000000
1576577768698	40230	13	-136,000000
1576577768698	40230	14	-76,000000
1576577768698	40230	15	-48,000000
1576577768764	40293	0	-59,000000
1576577768764	40293	1	-89,000000
1576577768764	40293	2	-102,000000
1576577768764	40293	3	-91,000000
1576577768764	40293	4	-82,000000
1576577768764	40293	5	-88,000000
1576577768764	40293	6	-103,000000
1576577768764	40293	7	-97,000000
1576577768764	40293	8	-61,000000
1576577768764	40293	9	-29,000000
1576577768764	40293	10	-22,000000
1576577768764	40293	11	-44,000000
1576577768764	40293	12	-69,000000
1576577768764	40293	13	-79,000000
1576577768764	40293	14	-88,000000
1576577768764	40293	15	-106,000000
1576577768817	40355	0	-134,000000
1576577768817	40355	1	-152,000000
1576577768817	40355	2	-146,000000
1576577768817	40355	3	-122,000000
1576577768817	40355	4	-109,000000
1576577768817	40355	5	-114,000000
1576577768817	40355	6	-128,000000
1576577768817	40355	7	-132,000000
1576577768817	40355	8	-118,000000
1576577768817	40355	9	-103,000000
1576577768817	40355	10	-109,000000
1576577768817	40355	11	-130,000000
1576577768817	40355	12	-147,000000
1576577768817	40355	13	-156,000000
1576577768817	40355	14	-165,000000
1576577768817	40355	15	-176,000000
1576577768905	40418	0	-185,000000
1576577768905	40418	1	-178,000000
1576577768905	40418	2	-163,000000
1576577768905	40418	3	-152,000000
1576577768905	40418	4	-152,000000
1576577768905	40418	5	-156,000000
1576577768905	40418	6	-160,000000
1576577768905	40418	7	-157,000000
1576577768905	40418	8	-158,000000
1576577768905	40418	9	-162,000000
1576577768905	40418	10	-158,000000
1576577768905	40418	11	-142,000000
1576577768905	40418	12	-122,000000
1576577768905	40418	13	-116,000000
1576577768905	40418	14	-130,000000
1576577768905	40418	15	-157,000000
1576577768951	40480	0	-166,000000
1576577768951	40480	1	-144,000000
1576577768951	40480	2	-106,000000
1576577768951	40480	3	-83,000000
1576577768951	40480	4	-94,000000
1576577768951	40480	5	-117,000000
1576577768951	40480	6	-122,000000
1576577768951	40480	7	-105,000000
1576577768951	40480	8	-96,000000
1576577768951	40480	9	-101,000000
1576577768951	40480	10	-112,000000
1576577768951	40480	11	-109,000000
1576577768951	40480	12	-100,000000
1576577768951	40480	13	-97,000000
1576577768951	40480	14	-108,000000
1576577768951	40480	15	-118,000000
1576577769072	40543	0	-115,000000
1576577769072	40543	1	-97,000000
1576577769072	40543	2	-83,000000
1576577769072	40543	3	-83,000000
1576577769072	40543	4	-102,000000
1576577769072	40543	5	-119,000000
1576577769072	40543	6	-128,000000
1576577769072	40543	7	-130,000000
1576577769072	40543	8	-115,000000
1576577769072	40543	9	-102,000000
1576577769072	40543	10	-83,000000
1576577769072	40543	11	-75,000000
1576577769072	40543	12	-82,000000
1576577769072	40543	13	-101,000000
1576577769072	40543	14	-116,000000
1576577769072	40543	15	-109,000000
1576577769096	40605	0	-89,000000
1576577769096	40605	1	-79,000000
1576577769096	40605	2	-91,000000
1576577769096	40605	3	-110,000000
1576577769096	40605	4	-114,000000
1576577769096	40605	5	-104,000000
1576577769096	40605	6	-101,000000
1576577769096	40605	7	-106,000000
1576577769096	40605	8	-118,000000
1576577769096	40605	9	-118,000000
1576577769096	40605	10	-104,000000
1576577769096	40605	11	-96,000000
1576577769096	40605	12	-101,000000
1576577769096	40605	13	-111,000000
1576577769096	40605	14	-109,000000
1576577769096	40605	15	-83,000000
1576577769165	40668	0	-48,000000
1576577769165	40668	1	-14,000000
1576577769165	40668	2	11,000000
1576577769165	40668	3	31,000000
1576577769165	40668	4	33,000000
1576577769165	40668	5	23,000000
1576577769165	40668	6	-6,000000
1576577769165	40668	7	-36,000000
1576577769165	40668	8	-49,000000
1576577769165	40668	9	-32,000000
1576577769165	40668	10	5,000000
1576577769165	40668	11	35,000000
1576577769165	40668	12	38,000000
1576577769165	40668	13	11,000000
1576577769165	40668	14	-24,000000
1576577769165	40668	15	-51,000000
1576577769204	40730	0	-66,000000
1576577769204	40730	1	-79,000000
1576577769204	40730	2	-101,000000
1576577769204	40730	3	-136,000000
1576577769204	40730	4	-169,000000
1576577769204	40730	5	-202,000000
1576577769204	40730	6	-244,000000
1576577769204	40730	7	-284,000000
1576577769204	40730	8	-305,000000
1576577769204	40730	9	-308,000000
1576577769204	40730	10	-306,000000
1576577769204	40730	11	-306,000000
1576577769204	40730	12	-305,000000
1576577769204	40730	13	-282,000000
1576577769204	40730	14	-230,000000
1576577769204	40730	15	-178,000000
1576577769249	40793	0	-162,000000
1576577769249	40793	1	-172,000000
1576577769249	40793	2	-178,000000
1576577769249	40793	3	-155,000000
1576577769249	40793	4	-117,000000
1576577769249	40793	5	-95,000000
1576577769249	40793	6	-101,000000
1576577769249	40793	7	-112,000000
1576577769249	40793	8	-94,000000
1576577769249	40793	9	20,000000
1576577769249	40793	10	279,000000
1576577769249	40793	11	703,000000
1576577769249	40793	12	1266,000000
1576577769249	40793	13	1863,000000
1576577769249	40793	14	2285,000000
1576577769249	40793	15	2322,000000
1576577769315	40855	0	1794,000000
1576577769315	40855	1	647,000000
1576577769315	40855	2	-946,000000
1576577769315	40855	3	-2585,000000
1576577769315	40855	4	-3766,000000
1576577769315	40855	5	-4133,000000
1576577769315	40855	6	-3663,000000
1576577769315	40855	7	-2609,000000
1576577769315	40855	8	-1358,000000
1576577769315	40855	9	-273,000000
1576577769315	40855	10	470,000000
1576577769315	40855	11	846,000000
1576577769315	40855	12	940,000000
1576577769315	40855	13	879,000000
1576577769315	40855	14	771,000000
1576577769315	40855	15	643,000000
1576577769455	40918	0	515,000000
1576577769455	40918	1	403,000000
1576577769455	40918	2	310,000000
1576577769455	40918	3	225,000000
1576577769455	40918	4	136,000000
1576577769455	40918	5	42,000000
1576577769455	40918	6	-6,000000
1576577769455	40918	7	8,000000
1576577769455	40918	8	70,000000
1576577769455	40918	9	133,000000
1576577769455	40918	10	166,000000
1576577769455	40918	11	166,000000
1576577769455	40918	12	145,000000
1576577769455	40918	13	88,000000
1576577769455	40918	14	3,000000
1576577769455	40918	15	-80,000000
1576577769472	40980	0	-110,000000
1576577769472	40980	1	-69,000000
1576577769472	40980	2	6,000000
1576577769472	40980	3	60,000000
1576577769472	40980	4	68,000000
1576577769472	40980	5	59,000000
1576577769472	40980	6	77,000000
1576577769472	40980	7	115,000000
1576577769472	40980	8	143,000000
1576577769472	40980	9	138,000000
1576577769472	40980	10	113,000000
1576577769472	40980	11	97,000000
1576577769472	40980	12	102,000000
1576577769472	40980	13	121,000000
1576577769472	40980	14	132,000000
1576577769472	40980	15	139,000000
1576577769529	41043	0	150,000000
1576577769529	41043	1	166,000000
1576577769529	41043	2	175,000000
1576577769529	41043	3	169,000000
1576577769529	41043	4	158,000000
1576577769529	41043	5	161,000000
1576577769529	41043	6	168,000000
1576577769529	41043	7	175,000000
1576577769529	41043	8	166,000000
1576577769529	41043	9	146,000000
1576577769529	41043	10	131,000000
1576577769529	41043	11	125,000000
1576577769529	41043	12	113,000000
1576577769529	41043	13	85,000000
1576577769529	41043	14	48,000000
1576577769529	41043	15	15,000000
1576577769655	41105	0	-22,000000
1576577769655	41105	1	-79,000000
1576577769655	41105	2	-175,000000
1576577769655	41105	3	-293,000000
1576577769655	41105	4	-386,000000
1576577769655	41105	5	-451,000000
1576577769655	41105	6	-498,000000
1576577769655	41105	7	-554,000000
1576577769655	41105	8	-633,000000
1576577769655	41105	9	-712,000000
1576577769655	41105	10	-770,000000
1576577769655	41105	11	-797,000000
1576577769655	41105	12	-812,000000
1576577769655	41105	13	-818,000000
1576577769655	41105	14	-810,000000
1576577769655	41105	15	-777,000000
1576577769709	41168	0	-728,000000
1576577769709	41168	1	-683,000000
1576577769709	41168	2	-650,000000
1576577769709	41168	3	-614,000000
1576577769709	41168	4	-560,000000
1576577769709	41168	5	-494,000000
1576577769709	41168	6	-440,000000
1576577769709	41168	7	-425,000000
1576577769709	41168	8	-441,000000
1576577769709	41168	9	-435,000000
1576577769709	41168	10	-384,000000
1576577769709	41168	11	-300,000000
1576577769709	41168	12	-206,000000
1576577769709	41168	13	-146,000000
1576577769709	41168	14	-106,000000
1576577769709	41168	15	-82,000000
1576577769774	41230	0	-71,000000
1576577769774	41230	1	-84,000000
1576577769774	41230	2	-107,000000
1576577769774	41230	3	-118,000000
1576577769774	41230	4	-89,000000
1576577769774	41230	5	-44,000000
1576577769774	41230	6	-12,000000
1576577769774	41230	7	-16,000000
1576577769774	41230	8	-37,000000
1576577769774	41230	9	-50,000000
1576577769774	41230	10	-57,000000
1576577769774	41230	11	-75,000000
1576577769774	41230	12	-104,000000
1576577769774	41230	13	-123,000000
1576577769774	41230	14	-109,000000
1576577769774	41230	15	-73,000000
1576577769788	41293	0	-48,000000
1576577769788	41293	1	-52,000000
1576577769788	41293	2	-70,000000
1576577769788	41293	3	-83,000000
1576577769788	41293	4	-82,000000
1576577769788	41293	5	-91,000000
1576577769788	41293	6	-120,000000
1576577769788	41293	7	-144,000000
1576577769788	41293	8	-150,000000
1576577769788	41293	9	-153,000000
1576577769788	41293	10	-157,000000
1576577769788	41293	11	-170,000000
1576577769788	41293	12	-189,000000
1576577769788	41293	13	-198,000000
1576577769788	41293	14	-201,000000
1576577769788	41293	15	-196,000000
1576577769848	41355	0	-189,000000
1576577769848	41355	1	-176,000000
1576577769848	41355	2	-150,000000
1576577769848	41355	3	-129,000000
1576577769848	41355	4	-122,000000
1576577769848	41355	5	-133,000000
1576577769848	41355	6	-151,000000
1576577769848	41355	7	-150,000000
1576577769848	41355	8	-134,000000
1576577769848	41355	9	-122,000000
1576577769848	41355	10	-135,000000
1576577769848	41355	11	-164,000000
1576577769848	41355	12	-172,000000
1576577769848	41355	13	-142,000000
1576577769848	41355	14	-105,000000
1576577769848	41355	15	-92,000000
1576577769899	41418	0	-116,000000
1576577769899	41418	1	-145,000000
1576577769899	41418	2	-153,000000
1576577769899	41418	3	-137,000000
1576577769899	41418	4	-113,000000
1576577769899	41418	5	-104,000000
1576577769899	41418	6	-107,000000
1576577769899	41418	7	-111,000000
1576577769899	41418	8	-106,000000
1576577769899	41418	9	-100,000000
1576577769899	41418	10	-95,000000
1576577769899	41418	11	-95,000000
1576577769899	41418	12	-99,000000
1576577769899	41418	13	-104,000000
1576577769899	41418	14	-111,000000
1576577769899	41418	15	-119,000000
1576577769951	41480	0	-117,000000
1576577769951	41480	1	-106,000000
1576577769951	41480	2	-91,000000
1576577769951	41480	3	-77,000000
1576577769951	41480	4	-84,000000
1576577769951	41480	5	-100,000000
1576577769951	41480	6	-111,000000
1576577769951	41480	7	-108,000000
1576577769951	41480	8	-98,000000
1576577769951	41480	9	-99,000000
1576577769951	41480	10	-112,000000
1576577769951	41480	11	-119,000000
1576577769951	41480	12	-112,000000
1576577769951	41480	13	-97,000000
1576577769951	41480	14	-87,000000
1576577769951	41480	15	-90,000000
1576577769996	41543	0	-97,000000
1576577769996	41543	1	-93,000000
1576577769996	41543	2	-90,000000
1576577769996	41543	3	-99,000000
1576577769996	41543	4	-121,000000
1576577769996	41543	5	-116,000000
1576577769996	41543	6	-62,000000
1576577769996	41543	7	17,000000
1576577769996	41543	8	71,000000
1576577769996	41543	9	74,000000
1576577769996	41543	10	36,000000
1576577769996	41543	11	-15,000000
1576577769996	41543	12	-30,000000
1576577769996	41543	13	-13,000000
1576577769996	41543	14	5,000000
1576577769996	41543	15	12,000000
1576577770066	41605	0	9,000000
1576577770066	41605	1	16,000000
1576577770066	41605	2	17,000000
1576577770066	41605	3	-7,000000
1576577770066	41605	4	-56,000000
1576577770066	41605	5	-107,000000
1576577770066	41605	6	-137,000000
1576577770066	41605	7	-144,000000
1576577770066	41605	8	-152,000000
1576577770066	41605	9	-176,000000
1576577770066	41605	10	-205,000000
1576577770066	41605	11	-234,000000
1576577770066	41605	12	-262,000000
1576577770066	41605	13	-296,000000
1576577770066	41605	14	-325,000000
1576577770066	41605	15	-336,000000
1576577770146	41668	0	-322,000000
1576577770146	41668	1	-286,000000
1576577770146	41668	2	-252,000000
1576577770146	41668	3	-221,000000
1576577770146	41668	4	-192,000000
1576577770146	41668	5	-170,000000
1576577770146	41668	6	-170,000000
1576577770146	41668	7	-188,000000
1576577770146	41668	8	-197,000000
1576577770146	41668	9	-167,000000
1576577770146	41668	10	-105,000000
1576577770146	41668	11	-56,000000
1576577770146	41668	12	-51,000000
1576577770146	41668	13	-64,000000
1576577770146	41668	14	2,000000
1576577770146	41668	15	242,000000
1576577770261	41730	0	656,000000
1576577770261	41730	1	1189,000000
1576577770261	41730	2	1730,000000
1576577770261	41730	3	2096,000000
1576577770261	41730	4	2113,000000
1576577770261	41730	5	1641,000000
1576577770261	41730	6	598,000000
1576577770261	41730	7	-899,000000
1576577770261	41730	8	-2503,000000
1576577770261	41730	9	-3722,000000
1576577770261	41730	10	-4151,000000
1576577770261	41730	11	-3696,000000
1576577770261	41730	12	-2600,000000
1576577770261	41730	13	-1277,000000
1576577770261	41730	14	-125,000000
1576577770261	41730	15	637,000000
1576577770267	41793	0	998,000000
1576577770267	41793	1	1040,000000
1576577770267	41793	2	917,000000
1576577770267	41793	3	785,000000
1576577770267	41793	4	687,000000
1576577770267	41793	5	602,000000
1576577770267	41793	6	490,000000
1576577770267	41793	7	358,000000
1576577770267	41793	8	241,000000
1576577770267	41793	9	146,000000
1576577770267	41793	10	85,000000
1576577770267	41793	11	46,000000
1576577770267	41793	12	35,000000
1576577770267	41793	13	65,000000
1576577770267	41793	14	110,000000
1576577770267	41793	15	139,000000
1576577770366	41855	0	122,000000
1576577770366	41855	1	61,000000
1576577770366	41855	2	-6,000000
1576577770366	41855	3	-39,000000
1576577770366	41855	4	-33,000000
1576577770366	41855	5	-21,000000
1576577770366	41855	6	-13,000000
1576577770366	41855	7	12,000000
1576577770366	41855	8	60,000000
1576577770366	41855	9	108,000000
1576577770366	41855	10	121,000000
1576577770366	41855	11	93,000000
1576577770366	41855	12	67,000000
1576577770366	41855	13	66,000000
1576577770366	41855	14	86,000000
1576577770366	41855	15	98,000000
1576577770403	41918	0	91,000000
1576577770403	41918	1	93,000000
1576577770403	41918	2	118,000000
1576577770403	41918	3	148,000000
1576577770403	41918	4	160,000000
1576577770403	41918	5	147,000000
1576577770403	41918	6	131,000000
1576577770403	41918	7	137,000000
1576577770403	41918	8	149,000000
1576577770403	41918	9	159,000000
1576577770403	41918	10	154,000000
1576577770403	41918	11	143,000000
1576577770403	41918	12	148,000000
1576577770403	41918	13	171,000000
1576577770403	41918	14	194,000000
1576577770403	41918	15	193,000000
1576577770467	41980	0	168,000000
1576577770467	41980	1	133,000000
1576577770467	41980	2	98,000000
1576577770467	41980	3	49,000000
1576577770467	41980	4	-19,000000
1576577770467	41980	5	-103,000000
1576577770467	41980	6	-182,000000
1576577770467	41980	7	-243,000000
1576577770467	41980	8	-295,000000
1576577770467	41980	9	-365,000000
1576577770467	41980	10	-445,000000
1576577770467	41980	11	-513,000000
1576577770467	41980	12	-576,000000
1576577770467	41980	13	-625,000000
1576577770467	41980	14	-671,000000
1576577770467	41980	15	-723,000000
1576577770542	42043	0	-773,000000
1576577770542	42043	1	-806,000000
1576577770542	42043	2	-813,000000
1576577770542	42043	3	-796,000000
1576577770542	42043	4	-756,000000
1576577770542	42043	5	-710,000000
1576577770542	42043	6	-667,000000
1576577770542	42043	7	-632,000000
1576577770542	42043	8	-600,000000
1576577770542	42043	9	-556,000000
1576577770542	42043	10	-493,000000
1576577770542	42043	11	-422,000000
1576577770542	42043	12	-373,000000
1576577770542	42043	13	-369,000000
1576577770542	42043	14	-377,000000
1576577770542	42043	15	-354,000000
1576577770604	42105	0	-280,000000
1576577770604	42105	1	-188,000000
1576577770604	42105	2	-113,000000
1576577770604	42105	3	-77,000000
1576577770604	42105	4	-64,000000
1576577770604	42105	5	-59,000000
1576577770604	42105	6	-56,000000
1576577770604	42105	7	-63,000000
1576577770604	42105	8	-85,000000
1576577770604	42105	9	-99,000000
1576577770604	42105	10	-95,000000
1576577770604	42105	11	-85,000000
1576577770604	42105	12	-70,000000
1576577770604	42105	13	-71,000000
1576577770604	42105	14	-76,000000
1576577770604	42105	15	-71,000000
1576577770652	42168	0	-52,000000
1576577770652	42168	1	-38,000000
1576577770652	42168	2	-49,000000
1576577770652	42168	3	-85,000000
1576577770652	42168	4	-114,000000
1576577770652	42168	5	-123,000000
1576577770652	42168	6	-120,000000
1576577770652	42168	7	-126,000000
1576577770652	42168	8	-131,000000
1576577770652	42168	9	-119,000000
1576577770652	42168	10	-96,000000
1576577770652	42168	11	-81,000000
1576577770652	42168	12	-92,000000
1576577770652	42168	13	-118,000000
1576577770652	42168	14	-132,000000
1576577770652	42168	15	-129,000000
1576577770696	42230	0	-120,000000
1576577770696	42230	1	-127,000000
1576577770696	42230	2	-150,000000
1576577770696	42230	3	-177,000000
1576577770696	42230	4	-191,000000
1576577770696	42230	5	-183,000000
1576577770696	42230	6	-169,000000
1576577770696	42230	7	-159,000000
1576577770696	42230	8	-161,000000
1576577770696	42230	9	-151,000000
1576577770696	42230	10	-135,000000
1576577770696	42230	11	-117,000000
1576577770696	42230	12	-117,000000
1576577770696	42230	13	-128,000000
1576577770696	42230	14	-134,000000
1576577770696	42230	15	-124,000000
1576577770765	42293	0	-112,000000
1576577770765	42293	1	-118,000000
1576577770765	42293	2	-141,000000
1576577770765	42293	3	-157,000000
1576577770765	42293	4	-156,000000
1576577770765	42293	5	-139,000000
1576577770765	42293	6	-131,000000
1576577770765	42293	7	-135,000000
1576577770765	42293	8	-130,000000
1576577770765	42293	9	-105,000000
1576577770765	42293	10	-86,000000
1576577770765	42293	11	-89,000000
1576577770765	42293	12	-116,000000
1576577770765	42293	13	-132,000000
1576577770765	42293	14	-122,000000
1576577770765	42293	15	-103,000000
1576577770815	42355	0	-97,000000
1576577770815	42355	1	-108,000000
1576577770815	42355	2	-111,000000
1576577770815	42355	3	-84,000000
1576577770815	42355	4	-58,000000
1576577770815	42355	5	-71,000000
1576577770815	42355	6	-115,000000
1576577770815	42355	7	-146,000000
1576577770815	42355	8	-135,000000
1576577770815	42355	9	-90,000000
1576577770815	42355	10	-63,000000
1576577770815	42355	11	-77,000000
1576577770815	42355	12	-112,000000
1576577770815	42355	13	-134,000000
1576577770815	42355	14	-131,000000
1576577770815	42355	15	-109,000000
1576577771013	42418	0	-102,000000
1576577771013	42418	1	-98,000000
1576577771013	42418	2	-95,000000
1576577771013	42418	3	-94,000000
1576577771013	42418	4	-95,000000
1576577771013	42418	5	-101,000000
1576577771013	42418	6	-103,000000
1576577771013	42418	7	-90,000000
1576577771013	42418	8	-69,000000
1576577771013	42418	9	-67,000000
1576577771013	42418	10	-88,000000
1576577771013	42418	11	-122,000000
1576577771013	42418	12	-134,000000
1576577771013	42418	13	-116,000000
1576577771013	42418	14	-87,000000
1576577771013	42418	15	-75,000000
1576577771030	42480	0	-82,000000
1576577771030	42480	1	-86,000000
1576577771030	42480	2	-77,000000
1576577771030	42480	3	-71,000000
1576577771030	42480	4	-79,000000
1576577771030	42480	5	-77,000000
1576577771030	42480	6	-33,000000
1576577771030	42480	7	46,000000
1576577771030	42480	8	109,000000
1576577771030	42480	9	103,000000
1576577771030	42480	10	40,000000
1576577771030	42480	11	-24,000000
1576577771030	42480	12	-41,000000
1576577771030	42480	13	-20,000000
1576577771030	42480	14	9,000000
1576577771030	42480	15	14,000000
1576577771054	42543	0	10,000000
1576577771054	42543	1	1,000000
1576577771054	42543	2	-14,000000
1576577771054	42543	3	-38,000000
1576577771054	42543	4	-79,000000
1576577771054	42543	5	-115,000000
1576577771054	42543	6	-135,000000
1576577771054	42543	7	-144,000000
1576577771054	42543	8	-160,000000
1576577771054	42543	9	-196,000000
1576577771054	42543	10	-240,000000
1576577771054	42543	11	-274,000000
1576577771054	42543	12	-300,000000
1576577771054	42543	13	-321,000000
1576577771054	42543	14	-340,000000
1576577771054	42543	15	-347,000000
1576577771080	42605	0	-326,000000
1576577771080	42605	1	-288,000000
1576577771080	42605	2	-244,000000
1576577771080	42605	3	-223,000000
1576577771080	42605	4	-214,000000
1576577771080	42605	5	-198,000000
1576577771080	42605	6	-170,000000
1576577771080	42605	7	-149,000000
1576577771080	42605	8	-139,000000
1576577771080	42605	9	-139,000000
1576577771080	42605	10	-129,000000
1576577771080	42605	11	-111,000000
1576577771080	42605	12	-101,000000
1576577771080	42605	13	-69,000000
1576577771080	42605	14	54,000000
1576577771080	42605	15	335,000000
1576577771148	42668	0	783,000000
1576577771148	42668	1	1335,000000
1576577771148	42668	2	1838,000000
1576577771148	42668	3	2087,000000
1576577771148	42668	4	1947,000000
1576577771148	42668	5	1317,000000
1576577771148	42668	6	145,000000
1576577771148	42668	7	-1428,000000
1576577771148	42668	8	-3013,000000
1576577771148	42668	9	-4044,000000
1576577771148	42668	10	-4117,000000
1576577771148	42668	11	-3251,000000
1576577771148	42668	12	-1871,000000
1576577771148	42668	13	-530,000000
1576577771148	42668	14	398,000000
1576577771148	42668	15	883,000000
1576577771223	42730	0	1027,000000
1576577771223	42730	1	946,000000
1576577771223	42730	2	776,000000
1576577771223	42730	3	626,000000
1576577771223	42730	4	543,000000
1576577771223	42730	5	493,000000
1576577771223	42730	6	419,000000
1576577771223	42730	7	296,000000
1576577771223	42730	8	160,000000
1576577771223	42730	9	69,000000
1576577771223	42730	10	29,000000
1576577771223	42730	11	23,000000
1576577771223	42730	12	38,000000
1576577771223	42730	13	73,000000
1576577771223	42730	14	119,000000
1576577771223	42730	15	141,000000
1576577771254	42793	0	106,000000
1576577771254	42793	1	18,000000
1576577771254	42793	2	-64,000000
1576577771254	42793	3	-87,000000
1576577771254	42793	4	-37,000000
1576577771254	42793	5	24,000000
1576577771254	42793	6	59,000000
1576577771254	42793	7	59,000000
1576577771254	42793	8	48,000000
1576577771254	42793	9	50,000000
1576577771254	42793	10	53,000000
1576577771254	42793	11	51,000000
1576577771254	42793	12	40,000000
1576577771254	42793	13	42,000000
1576577771254	42793	14	62,000000
1576577771254	42793	15	100,000000
1576577771355	42855	0	124,000000
1576577771355	42855	1	126,000000
1576577771355	42855	2	115,000000
1576577771355	42855	3	115,000000
1576577771355	42855	4	125,000000
1576577771355	42855	5	133,000000
1576577771355	42855	6	124,000000
1576577771355	42855	7	116,000000
1576577771355	42855	8	122,000000
1576577771355	42855	9	143,000000
1576577771355	42855	10	166,000000
1576577771355	42855	11	170,000000
1576577771355	42855	12	166,000000
1576577771355	42855	13	171,000000
1576577771355	42855	14	188,000000
1576577771355	42855	15	188,000000
1576577771403	42919	0	151,000000
1576577771403	42919	1	93,000000
1576577771403	42919	2	42,000000
1576577771403	42919	3	0,000000
1576577771403	42919	4	-48,000000
1576577771403	42919	5	-122,000000
1576577771403	42919	6	-212,000000
1576577771403	42919	7	-287,000000
1576577771403	42919	8	-336,000000
1576577771403	42919	9	-379,000000
1576577771403	42919	10	-446,000000
1576577771403	42919	11	-529,000000
1576577771403	42919	12	-595,000000
1576577771403	42919	13	-628,000000
1576577771403	42919	14	-648,000000
1576577771403	42919	15	-691,000000
1576577771452	42980	0	-757,000000
1576577771452	42980	1	-807,000000
1576577771452	42980	2	-806,000000
1576577771452	42980	3	-771,000000
1576577771452	42980	4	-734,000000
1576577771452	42980	5	-705,000000
1576577771452	42980	6	-664,000000
1576577771452	42980	7	-601,000000
1576577771452	42980	8	-532,000000
1576577771452	42980	9	-476,000000
1576577771452	42980	10	-448,000000
1576577771452	42980	11	-434,000000
1576577771452	42980	12	-409,000000
1576577771452	42980	13	-387,000000
1576577771452	42980	14	-370,000000
1576577771452	42980	15	-338,000000
1576577771628	43043	0	-270,000000
1576577771628	43043	1	-182,000000
1576577771628	43043	2	-104,000000
1576577771628	43043	3	-73,000000
1576577771628	43043	4	-76,000000
1576577771628	43043	5	-87,000000
1576577771628	43043	6	-85,000000
1576577771628	43043	7	-88,000000
1576577771628	43043	8	-102,000000
1576577771628	43043	9	-135,000000
1576577771628	43043	10	-153,000000
1576577771628	43043	11	-136,000000
1576577771628	43043	12	-97,000000
1576577771628	43043	13	-53,000000
1576577771628	43043	14	-28,000000
1576577771628	43043	15	-23,000000
1576577771633	43105	0	-23,000000
1576577771633	43105	1	-33,000000
1576577771633	43105	2	-57,000000
1576577771633	43105	3	-95,000000
1576577771633	43105	4	-138,000000
1576577771633	43105	5	-156,000000
1576577771633	43105	6	-133,000000
1576577771633	43105	7	-94,000000
1576577771633	43105	8	-81,000000
1576577771633	43105	9	-98,000000
1576577771633	43105	10	-123,000000
1576577771633	43105	11	-122,000000
1576577771633	43105	12	-104,000000
1576577771633	43105	13	-91,000000
1576577771633	43105	14	-113,000000
1576577771633	43105	15	-146,000000
1576577771663	43168	0	-170,000000
1576577771663	43168	1	-176,000000
1576577771663	43168	2	-181,000000
1576577771663	43168	3	-192,000000
1576577771663	43168	4	-198,000000
1576577771663	43168	5	-181,000000
1576577771663	43168	6	-162,000000
1576577771663	43168	7	-157,000000
1576577771663	43168	8	-161,000000
1576577771663	43168	9	-163,000000
1576577771663	43168	10	-157,000000
1576577771663	43168	11	-141,000000
1576577771663	43168	12	-139,000000
1576577771663	43168	13	-146,000000
1576577771663	43168	14	-153,000000
1576577771663	43168	15	-142,000000
1576577771707	43230	0	-123,000000
1576577771707	43230	1	-108,000000
1576577771707	43230	2	-112,000000
1576577771707	43230	3	-119,000000
1576577771707	43230	4	-120,000000
1576577771707	43230	5	-121,000000
1576577771707	43230	6	-117,000000
1576577771707	43230	7	-125,000000
1576577771707	43230	8	-130,000000
1576577771707	43230	9	-130,000000
1576577771707	43230	10	-117,000000
1576577771707	43230	11	-108,000000
1576577771707	43230	12	-113,000000
1576577771707	43230	13	-123,000000
1576577771707	43230	14	-120,000000
1576577771707	43230	15	-104,000000
1576577771769	43293	0	-88,000000
1576577771769	43293	1	-90,000000
1576577771769	43293	2	-101,000000
1576577771769	43293	3	-110,000000
1576577771769	43293	4	-111,000000
1576577771769	43293	5	-110,000000
1576577771769	43293	6	-112,000000
1576577771769	43293	7	-119,000000
1576577771769	43293	8	-115,000000
1576577771769	43293	9	-104,000000
1576577771769	43293	10	-102,000000
1576577771769	43293	11	-102,000000
1576577771769	43293	12	-108,000000
1576577771769	43293	13	-100,000000
1576577771769	43293	14	-80,000000
1576577771769	43293	15	-68,000000
1576577771815	43355	0	-76,000000
1576577771815	43355	1	-105,000000
1576577771815	43355	2	-130,000000
1576577771815	43355	3	-126,000000
1576577771815	43355	4	-99,000000
1576577771815	43355	5	-83,000000
1576577771815	43355	6	-87,000000
1576577771815	43355	7	-103,000000
1576577771815	43355	8	-103,000000
1576577771815	43355	9	-83,000000
1576577771815	43355	10	-65,000000
1576577771815	43355	11	-82,000000
1576577771815	43355	12	-113,000000
1576577771815	43355	13	-125,000000
1576577771815	43355	14	-110,000000
1576577771815	43355	15	-84,000000
1576577771919	43418	0	-79,000000
1576577771919	43418	1	-92,000000
1576577771919	43418	2	-102,000000
1576577771919	43418	3	-92,000000
1576577771919	43418	4	-75,000000
1576577771919	43418	5	-79,000000
1576577771919	43418	6	-98,000000
1576577771919	43418	7	-94,000000
1576577771919	43418	8	-51,000000
1576577771919	43418	9	21,000000
1576577771919	43418	10	79,000000
1576577771919	43418	11	95,000000
1576577771919	43418	12	65,000000
1576577771919	43418	13	15,000000
1576577771919	43418	14	-26,000000
1576577771919	43418	15	-50,000000
1576577772002	43480	0	-46,000000
1576577772002	43480	1	-24,000000
1576577772002	43480	2	13,000000
1576577772002	43480	3	30,000000
1576577772002	43480	4	8,000000
1576577772002	43480	5	-40,000000
1576577772002	43480	6	-85,000000
1576577772002	43480	7	-107,000000
1576577772002	43480	8	-113,000000
1576577772002	43480	9	-125,000000
1576577772002	43480	10	-156,000000
1576577772002	43480	11	-191,000000
1576577772002	43480	12	-215,000000
1576577772002	43480	13	-241,000000
1576577772002	43480	14	-276,000000
1576577772002	43480	15	-315,000000
1576577772030	43543	0	-336,000000
1576577772030	43543	1	-322,000000
1576577772030	43543	2	-293,000000
1576577772030	43543	3	-279,000000
1576577772030	43543	4	-279,000000
1576577772030	43543	5	-269,000000
1576577772030	43543	6	-230,000000
1576577772030	43543	7	-173,000000
1576577772030	43543	8	-134,000000
1576577772030	43543	9	-123,000000
1576577772030	43543	10	-133,000000
1576577772030	43543	11	-128,000000
1576577772030	43543	12	-102,000000
1576577772030	43543	13	-76,000000
1576577772030	43543	14	-77,000000
1576577772030	43543	15	-86,000000
1576577772067	43605	0	-3,000000
1576577772067	43605	1	255,000000
1576577772067	43605	2	683,000000
1576577772067	43605	3	1233,000000
1576577772067	43605	4	1774,000000
1576577772067	43605	5	2128,000000
1576577772067	43605	6	2130,000000
1576577772067	43605	7	1634,000000
1576577772067	43605	8	545,000000
1576577772067	43605	9	-1024,000000
1576577772067	43605	10	-2686,000000
1576577772067	43605	11	-3890,000000
1576577772067	43605	12	-4207,000000
1576577772067	43605	13	-3578,000000
1576577772067	43605	14	-2327,000000
1576577772067	43605	15	-955,000000
1576577772264	43668	0	116,000000
1576577772264	43668	1	734,000000
1576577772264	43668	2	963,000000
1576577772264	43668	3	934,000000
1576577772264	43668	4	802,000000
1576577772264	43668	5	690,000000
1576577772264	43668	6	611,000000
1576577772264	43668	7	528,000000
1576577772264	43668	8	423,000000
1576577772264	43668	9	306,000000
1576577772264	43668	10	195,000000
1576577772264	43668	11	97,000000
1576577772264	43668	12	15,000000
1576577772264	43668	13	-45,000000
1576577772264	43668	14	-61,000000
1576577772264	43668	15	-11,000000
1576577772301	43730	0	81,000000
1576577772301	43730	1	161,000000
1576577772301	43730	2	184,000000
1576577772301	43730	3	140,000000
1576577772301	43730	4	67,000000
1576577772301	43730	5	7,000000
1576577772301	43730	6	-26,000000
1576577772301	43730	7	-31,000000
1576577772301	43730	8	-31,000000
1576577772301	43730	9	-17,000000
1576577772301	43730	10	16,000000
1576577772301	43730	11	47,000000
1576577772301	43730	12	67,000000
1576577772301	43730	13	65,000000
1576577772301	43730	14	59,000000
1576577772301	43730	15	69,000000
1576577772310	43793	0	91,000000
1576577772310	43793	1	102,000000
1576577772310	43793	2	92,000000
1576577772310	43793	3	79,000000
1576577772310	43793	4	82,000000
1576577772310	43793	5	109,000000
1576577772310	43793	6	139,000000
1576577772310	43793	7	148,000000
1576577772310	43793	8	143,000000
1576577772310	43793	9	137,000000
1576577772310	43793	10	144,000000
1576577772310	43793	11	155,000000
1576577772310	43793	12	163,000000
1576577772310	43793	13	165,000000
1576577772310	43793	14	172,000000
1576577772310	43793	15	179,000000
1576577772411	43855	0	175,000000
1576577772411	43855	1	150,000000
1576577772411	43855	2	117,000000
1576577772411	43855	3	94,000000
1576577772411	43855	4	76,000000
1576577772411	43855	5	38,000000
1576577772411	43855	6	-31,000000
1576577772411	43855	7	-108,000000
1576577772411	43855	8	-166,000000
1576577772411	43855	9	-200,000000
1576577772411	43855	10	-243,000000
1576577772411	43855	11	-314,000000
1576577772411	43855	12	-398,000000
1576577772411	43855	13	-481,000000
1576577772411	43855	14	-547,000000
1576577772411	43855	15	-599,000000
1576577772433	43919	0	-650,000000
1576577772433	43919	1	-707,000000
1576577772433	43919	2	-759,000000
1576577772433	43919	3	-785,000000
1576577772433	43919	4	-800,000000
1576577772433	43919	5	-807,000000
1576577772433	43919	6	-798,000000
1576577772433	43919	7	-762,000000
1576577772433	43919	8	-704,000000
1576577772433	43919	9	-632,000000
1576577772433	43919	10	-563,000000
1576577772433	43919	11	-505,000000
1576577772433	43919	12	-459,000000
1576577772433	43919	13	-413,000000
1576577772433	43919	14	-380,000000
1576577772433	43919	15	-366,000000
1576577772464	43980	0	-362,000000
1576577772464	43980	1	-328,000000
1576577772464	43980	2	-265,000000
1576577772464	43980	3	-189,000000
1576577772464	43980	4	-124,000000
1576577772464	43980	5	-93,000000
1576577772464	43980	6	-86,000000
1576577772464	43980	7	-78,000000
1576577772464	43980	8	-72,000000
1576577772464	43980	9	-72,000000
1576577772464	43980	10	-89,000000
1576577772464	43980	11	-118,000000
1576577772464	43980	12	-127,000000
1576577772464	43980	13	-113,000000
1576577772464	43980	14	-89,000000
1576577772464	43980	15	-70,000000
1576577772509	44043	0	-56,000000
1576577772509	44043	1	-44,000000
1576577772509	44043	2	-34,000000
1576577772509	44043	3	-41,000000
1576577772509	44043	4	-73,000000
1576577772509	44043	5	-112,000000
1576577772509	44043	6	-130,000000
1576577772509	44043	7	-125,000000
1576577772509	44043	8	-122,000000
1576577772509	44043	9	-133,000000
1576577772509	44043	10	-149,000000
1576577772509	44043	11	-143,000000
1576577772509	44043	12	-127,000000
1576577772509	44043	13	-131,000000
1576577772509	44043	14	-158,000000
1576577772509	44043	15	-171,000000
1576577772606	44105	0	-140,000000
1576577772606	44105	1	-92,000000
1576577772606	44105	2	-74,000000
1576577772606	44105	3	-114,000000
1576577772606	44105	4	-178,000000
1576577772606	44105	5	-210,000000
1576577772606	44105	6	-188,000000
1576577772606	44105	7	-149,000000
1576577772606	44105	8	-136,000000
1576577772606	44105	9	-153,000000
1576577772606	44105	10	-170,000000
1576577772606	44105	11	-172,000000
1576577772606	44105	12	-158,000000
1576577772606	44105	13	-156,000000
1576577772606	44105	14	-168,000000
1576577772606	44105	15	-182,000000
1576577772645	44169	0	-171,000000
1576577772645	44169	1	-146,000000
1576577772645	44169	2	-125,000000
1576577772645	44169	3	-121,000000
1576577772645	44169	4	-127,000000
1576577772645	44169	5	-127,000000
1576577772645	44169	6	-117,000000
1576577772645	44169	7	-112,000000
1576577772645	44169	8	-116,000000
1576577772645	44169	9	-126,000000
1576577772645	44169	10	-124,000000
1576577772645	44169	11	-112,000000
1576577772645	44169	12	-97,000000
1576577772645	44169	13	-94,000000
1576577772645	44169	14	-105,000000
1576577772645	44169	15	-123,000000
1576577772695	44230	0	-137,000000
1576577772695	44230	1	-136,000000
1576577772695	44230	2	-121,000000
1576577772695	44230	3	-104,000000
1576577772695	44230	4	-95,000000
1576577772695	44230	5	-94,000000
1576577772695	44230	6	-108,000000
1576577772695	44230	7	-118,000000
1576577772695	44230	8	-131,000000
1576577772695	44230	9	-127,000000
1576577772695	44230	10	-111,000000
1576577772695	44230	11	-94,000000
1576577772695	44230	12	-93,000000
1576577772695	44230	13	-108,000000
1576577772695	44230	14	-121,000000
1576577772695	44230	15	-108,000000
1576577772800	44293	0	-74,000000
1576577772800	44293	1	-46,000000
1576577772800	44293	2	-47,000000
1576577772800	44293	3	-78,000000
1576577772800	44293	4	-105,000000
1576577772800	44293	5	-114,000000
1576577772800	44293	6	-114,000000
1576577772800	44293	7	-120,000000
1576577772800	44293	8	-128,000000
1576577772800	44293	9	-129,000000
1576577772800	44293	10	-119,000000
1576577772800	44293	11	-112,000000
1576577772800	44293	12	-112,000000
1576577772800	44293	13	-115,000000
1576577772800	44293	14	-112,000000
1576577772800	44293	15	-100,000000
1576577772984	44355	0	-92,000000
1576577772984	44355	1	-96,000000
1576577772984	44355	2	-98,000000
1576577772984	44355	3	-82,000000
1576577772984	44355	4	-56,000000
1576577772984	44355	5	-45,000000
1576577772984	44355	6	-44,000000
1576577772984	44355	7	-37,000000
1576577772984	44355	8	-5,000000
1576577772984	44355	9	27,000000
1576577772984	44355	10	23,000000
1576577772984	44355	11	-22,000000
1576577772984	44355	12	-68,000000
1576577772984	44355	13	-64,000000
1576577772984	44355	14	-9,000000
1576577772984	44355	15	44,000000
1576577772993	44418	0	58,000000
1576577772993	44418	1	31,000000
1576577772993	44418	2	1,000000
1576577772993	44418	3	-11,000000
1576577772993	44418	4	-13,000000
1576577772993	44418	5	-30,000000
1576577772993	44418	6	-67,000000
1576577772993	44418	7	-109,000000
1576577772993	44418	8	-142,000000
1576577772993	44418	9	-162,000000
1576577772993	44418	10	-192,000000
1576577772993	44418	11	-238,000000
1576577772993	44418	12	-270,000000
1576577772993	44418	13	-266,000000
1576577772993	44418	14	-253,000000
1576577772993	44418	15	-255,000000
1576577773002	44480	0	-285,000000
1576577773002	44480	1	-307,000000
1576577773002	44480	2	-285,000000
1576577773002	44480	3	-225,000000
1576577773002	44480	4	-178,000000
1576577773002	44480	5	-161,000000
1576577773002	44480	6	-164,000000
1576577773002	44480	7	-141,000000
1576577773002	44480	8	-113,000000
1576577773002	44480	9	-104,000000
1576577773002	44480	10	-122,000000
1576577773002	44480	11	-150,000000
1576577773002	44480	12	-152,000000
1576577773002	44480	13	-109,000000
1576577773002	44480	14	-28,000000
1576577773002	44480	15	147,000000
1576577773013	44543	0	465,000000
1576577773013	44543	1	952,000000
1576577773013	44543	2	1549,000000
1576577773013	44543	3	2083,000000
1576577773013	44543	4	2316,000000
1576577773013	44543	5	2079,000000
1576577773013	44543	6	1251,000000
1576577773013	44543	7	-124,000000
1576577773013	44543	8	-1764,000000
1576577773013	44543	9	-3209,000000
1576577773013	44543	10	-4006,000000
1576577773013	44543	11	-3947,000000
1576577773013	44543	12	-3171,000000
1576577773013	44543	13	-2019,000000
1576577773013	44543	14	-857,000000
1576577773013	44543	15	59,000000
1576577773060	44605	0	665,000000
1576577773060	44605	1	959,000000
1576577773060	44605	2	989,000000
1576577773060	44605	3	870,000000
1576577773060	44605	4	719,000000
1576577773060	44605	5	593,000000
1576577773060	44605	6	513,000000
1576577773060	44605	7	441,000000
1576577773060	44605	8	348,000000
1576577773060	44605	9	228,000000
1576577773060	44605	10	117,000000
1576577773060	44605	11	65,000000
1576577773060	44605	12	73,000000
1576577773060	44605	13	98,000000
1576577773060	44605	14	110,000000
1576577773060	44605	15	99,000000
1576577773150	44668	0	77,000000
1576577773150	44668	1	59,000000
1576577773150	44668	2	29,000000
1576577773150	44668	3	-9,000000
1576577773150	44668	4	-44,000000
1576577773150	44668	5	-64,000000
1576577773150	44668	6	-41,000000
1576577773150	44668	7	14,000000
1576577773150	44668	8	60,000000
1576577773150	44668	9	81,000000
1576577773150	44668	10	89,000000
1576577773150	44668	11	101,000000
1576577773150	44668	12	118,000000
1576577773150	44668	13	112,000000
1576577773150	44668	14	85,000000
1576577773150	44668	15	61,000000
1576577773214	44730	0	65,000000
1576577773214	44730	1	102,000000
1576577773214	44730	2	139,000000
1576577773214	44730	3	144,000000
1576577773214	44730	4	145,000000
1576577773214	44730	5	160,000000
1576577773214	44730	6	192,000000
1576577773214	44730	7	205,000000
1576577773214	44730	8	186,000000
1576577773214	44730	9	151,000000
1576577773214	44730	10	130,000000
1576577773214	44730	11	122,000000
1576577773214	44730	12	114,000000
1576577773214	44730	13	101,000000
1576577773214	44730	14	89,000000
1576577773214	44730	15	98,000000
1576577773303	44793	0	111,000000
1576577773303	44793	1	107,000000
1576577773303	44793	2	75,000000
1576577773303	44793	3	38,000000
1576577773303	44793	4	17,000000
1576577773303	44793	5	-3,000000
1576577773303	44793	6	-50,000000
1576577773303	44793	7	-144,000000
1576577773303	44793	8	-252,000000
1576577773303	44793	9	-332,000000
1576577773303	44793	10	-390,000000
1576577773303	44793	11	-448,000000
1576577773303	44793	12	-523,000000
1576577773303	44793	13	-613,000000
1576577773303	44793	14	-676,000000
1576577773303	44793	15	-704,000000
1576577773321	44855	0	-719,000000
1576577773321	44855	1	-732,000000
1576577773321	44855	2	-751,000000
1576577773321	44855	3	-757,000000
1576577773321	44855	4	-744,000000
1576577773321	44855	5	-730,000000
1576577773321	44855	6	-719,000000
1576577773321	44855	7	-695,000000
1576577773321	44855	8	-622,000000
1576577773321	44855	9	-520,000000
1576577773321	44855	10	-444,000000
1576577773321	44855	11	-429,000000
1576577773321	44855	12	-455,000000
1576577773321	44855	13	-469,000000
1576577773321	44855	14	-426,000000
1576577773321	44855	15	-352,000000
1576577773403	44918	0	-270,000000
1576577773403	44918	1	-205,000000
1576577773403	44918	2	-149,000000
1576577773403	44918	3	-94,000000
1576577773403	44918	4	-68,000000
1576577773403	44918	5	-83,000000
1576577773403	44918	6	-144,000000
1576577773403	44918	7	-209,000000
1576577773403	44918	8	-238,000000
1576577773403	44918	9	-207,000000
1576577773403	44918	10	-134,000000
1576577773403	44918	11	-54,000000
1576577773403	44918	12	4,000000
1576577773403	44918	13	31,000000
1576577773403	44918	14	22,000000
1576577773403	44918	15	-4,000000
1576577773449	44980	0	-32,000000
1576577773449	44980	1	-55,000000
1576577773449	44980	2	-65,000000
1576577773449	44980	3	-72,000000
1576577773449	44980	4	-86,000000
1576577773449	44980	5	-109,000000
1576577773449	44980	6	-121,000000
1576577773449	44980	7	-110,000000
1576577773449	44980	8	-96,000000
1576577773449	44980	9	-103,000000
1576577773449	44980	10	-127,000000
1576577773449	44980	11	-146,000000
1576577773449	44980	12	-142,000000
1576577773449	44980	13	-116,000000
1576577773449	44980	14	-96,000000
1576577773449	44980	15	-112,000000
1576577773524	45043	0	-164,000000
1576577773524	45043	1	-211,000000
1576577773524	45043	2	-221,000000
1576577773524	45043	3	-185,000000
1576577773524	45043	4	-136,000000
1576577773524	45043	5	-102,000000
1576577773524	45043	6	-95,000000
1576577773524	45043	7	-98,000000
1576577773524	45043	8	-102,000000
1576577773524	45043	9	-104,000000
1576577773524	45043	10	-115,000000
1576577773524	45043	11	-133,000000
1576577773524	45043	12	-144,000000
1576577773524	45043	13	-155,000000
1576577773524	45043	14	-182,000000
1576577773524	45043	15	-229,000000
1576577773572	45105	0	-292,000000
1576577773572	45105	1	-312,000000
1576577773572	45105	2	-281,000000
1576577773572	45105	3	-226,000000
1576577773572	45105	4	-190,000000
1576577773572	45105	5	-182,000000
1576577773572	45105	6	-181,000000
1576577773572	45105	7	-156,000000
1576577773572	45105	8	-115,000000
1576577773572	45105	9	-86,000000
1576577773572	45105	10	-84,000000
1576577773572	45105	11	-101,000000
1576577773572	45105	12	-111,000000
1576577773572	45105	13	-109,000000
1576577773572	45105	14	-120,000000
1576577773572	45105	15	-145,000000
1576577773653	45168	0	-178,000000
1576577773653	45168	1	-209,000000
1576577773653	45168	2	-235,000000
1576577773653	45168	3	-257,000000
1576577773653	45168	4	-253,000000
1576577773653	45168	5	-206,000000
1576577773653	45168	6	-114,000000
1576577773653	45168	7	-1,000000
1576577773653	45168	8	91,000000
1576577773653	45168	9	149,000000
1576577773653	45168	10	178,000000
1576577773653	45168	11	200,000000
1576577773653	45168	12	207,000000
1576577773653	45168	13	161,000000
1576577773653	45168	14	79,000000
1576577773653	45168	15	-8,000000
1576577773707	45230	0	-57,000000
1576577773707	45230	1	-90,000000
1576577773707	45230	2	-136,000000
1576577773707	45230	3	-207,000000
1576577773707	45230	4	-267,000000
1576577773707	45230	5	-276,000000
1576577773707	45230	6	-223,000000
1576577773707	45230	7	-137,000000
1576577773707	45230	8	-63,000000
1576577773707	45230	9	-12,000000
1576577773707	45230	10	30,000000
1576577773707	45230	11	51,000000
1576577773707	45230	12	48,000000
1576577773707	45230	13	24,000000
1576577773707	45230	14	-3,000000
1576577773707	45230	15	-22,000000
1576577773751	45293	0	-36,000000
1576577773751	45293	1	-53,000000
1576577773751	45293	2	-81,000000
1576577773751	45293	3	-117,000000
1576577773751	45293	4	-136,000000
1576577773751	45293	5	-122,000000
1576577773751	45293	6	-92,000000
1576577773751	45293	7	-74,000000
1576577773751	45293	8	-71,000000
1576577773751	45293	9	-68,000000
1576577773751	45293	10	-53,000000
1576577773751	45293	11	-43,000000
1576577773751	45293	12	-52,000000
1576577773751	45293	13	-97,000000
1576577773751	45293	14	-172,000000
1576577773751	45293	15	-244,000000
1576577773813	45355	0	-266,000000
1576577773813	45355	1	-227,000000
1576577773813	45355	2	-157,000000
1576577773813	45355	3	-111,000000
1576577773813	45355	4	-122,000000
1576577773813	45355	5	-162,000000
1576577773813	45355	6	-189,000000
1576577773813	45355	7	-177,000000
1576577773813	45355	8	-137,000000
1576577773813	45355	9	-114,000000
1576577773813	45355	10	-113,000000
1576577773813	45355	11	-121,000000
1576577773813	45355	12	-139,000000
1576577773813	45355	13	-164,000000
1576577773813	45355	14	-191,000000
1576577773813	45355	15	-215,000000
1576577773927	45418	0	-231,000000
1576577773927	45418	1	-232,000000
1576577773927	45418	2	-206,000000
1576577773927	45418	3	-156,000000
1576577773927	45418	4	-107,000000
1576577773927	45418	5	-86,000000
1576577773927	45418	6	-62,000000
1576577773927	45418	7	52,000000
1576577773927	45418	8	355,000000
1576577773927	45418	9	856,000000
1576577773927	45418	10	1499,000000
1576577773927	45418	11	2144,000000
1576577773927	45418	12	2598,000000
1576577773927	45418	13	2642,000000
1576577773927	45418	14	2011,000000
1576577773927	45418	15	591,000000
1576577773953	45480	0	-1355,000000
1576577773953	45480	1	-3218,000000
1576577773953	45480	2	-4308,000000
1576577773953	45480	3	-4310,000000
1576577773953	45480	4	-3404,000000
1576577773953	45480	5	-2078,000000
1576577773953	45480	6	-826,000000
1576577773953	45480	7	78,000000
1576577773953	45480	8	595,000000
1576577773953	45480	9	795,000000
1576577773953	45480	10	791,000000
1576577773953	45480	11	718,000000
1576577773953	45480	12	649,000000
1576577773953	45480	13	592,000000
1576577773953	45480	14	520,000000
1576577773953	45480	15	400,000000
1576577773999	45543	0	246,000000
1576577773999	45543	1	92,000000
1576577773999	45543	2	-18,000000
1576577773999	45543	3	-54,000000
1576577773999	45543	4	-20,000000
1576577773999	45543	5	42,000000
1576577773999	45543	6	95,000000
1576577773999	45543	7	116,000000
1576577773999	45543	8	85,000000
1576577773999	45543	9	3,000000
1576577773999	45543	10	-111,000000
1576577773999	45543	11	-203,000000
1576577773999	45543	12	-234,000000
1576577773999	45543	13	-186,000000
1576577773999	45543	14	-101,000000
1576577773999	45543	15	-12,000000
1576577774187	45605	0	59,000000
1576577774187	45605	1	113,000000
1576577774187	45605	2	146,000000
1576577774187	45605	3	158,000000
1576577774187	45605	4	153,000000
1576577774187	45605	5	164,000000
1576577774187	45605	6	207,000000
1576577774187	45605	7	271,000000
1576577774187	45605	8	316,000000
1576577774187	45605	9	326,000000
1576577774187	45605	10	302,000000
1576577774187	45605	11	269,000000
1576577774187	45605	12	240,000000
1576577774187	45605	13	218,000000
1576577774187	45605	14	194,000000
1576577774187	45605	15	176,000000
1576577774206	45668	0	182,000000
1576577774206	45668	1	205,000000
1576577774206	45668	2	219,000000
1576577774206	45668	3	193,000000
1576577774206	45668	4	131,000000
1576577774206	45668	5	63,000000
1576577774206	45668	6	9,000000
1576577774206	45668	7	-32,000000
1576577774206	45668	8	-85,000000
1576577774206	45668	9	-150,000000
1576577774206	45668	10	-201,000000
1576577774206	45668	11	-213,000000
1576577774206	45668	12	-188,000000
1576577774206	45668	13	-155,000000
1576577774206	45668	14	-144,000000
1576577774206	45668	15	-157,000000
1576577774221	45730	0	-180,000000
1576577774221	45730	1	-221,000000
1576577774221	45730	2	-292,000000
1576577774221	45730	3	-394,000000
1576577774221	45730	4	-499,000000
1576577774221	45730	5	-567,000000
1576577774221	45730	6	-587,000000
1576577774221	45730	7	-589,000000
1576577774221	45730	8	-608,000000
1576577774221	45730	9	-653,000000
1576577774221	45730	10	-685,000000
1576577774221	45730	11	-683,000000
1576577774221	45730	12	-644,000000
1576577774221	45730	13	-604,000000
1576577774221	45730	14	-584,000000
1576577774221	45730	15	-567,000000
1576577774264	45793	0	-520,000000
1576577774264	45793	1	-440,000000
1576577774264	45793	2	-354,000000
1576577774264	45793	3	-311,000000
1576577774264	45793	4	-331,000000
1576577774264	45793	5	-407,000000
1576577774264	45793	6	-478,000000
1576577774264	45793	7	-489,000000
1576577774264	45793	8	-408,000000
1576577774264	45793	9	-261,000000
1576577774264	45793	10	-106,000000
1576577774264	45793	11	-14,000000
1576577774264	45793	12	-13,000000
1576577774264	45793	13	-92,000000
1576577774264	45793	14	-185,000000
1576577774264	45793	15	-241,000000
1576577774354	45855	0	-240,000000
1576577774354	45855	1	-207,000000
1576577774354	45855	2	-162,000000
1576577774354	45855	3	-128,000000
1576577774354	45855	4	-106,000000
1576577774354	45855	5	-103,000000
1576577774354	45855	6	-112,000000
1576577774354	45855	7	-130,000000
1576577774354	45855	8	-140,000000
1576577774354	45855	9	-136,000000
1576577774354	45855	10	-130,000000
1576577774354	45855	11	-143,000000
1576577774354	45855	12	-168,000000
1576577774354	45855	13	-183,000000
1576577774354	45855	14	-167,000000
1576577774354	45855	15	-135,000000
1576577774401	45918	0	-112,000000
1576577774401	45918	1	-108,000000
1576577774401	45918	2	-130,000000
1576577774401	45918	3	-156,000000
1576577774401	45918	4	-177,000000
1576577774401	45918	5	-194,000000
1576577774401	45918	6	-216,000000
1576577774401	45918	7	-256,000000
1576577774401	45918	8	-290,000000
1576577774401	45918	9	-306,000000
1576577774401	45918	10	-285,000000
1576577774401	45918	11	-235,000000
1576577774401	45918	12	-186,000000
1576577774401	45918	13	-164,000000
1576577774401	45918	14	-171,000000
1576577774401	45918	15	-202,000000
1576577774446	45980	0	-240,000000
1576577774446	45980	1	-277,000000
1576577774446	45980	2	-286,000000
1576577774446	45980	3	-258,000000
1576577774446	45980	4	-187,000000
1576577774446	45980	5	-97,000000
1576577774446	45980	6	-13,000000
1576577774446	45980	7	45,000000
1576577774446	45980	8	73,000000
1576577774446	45980	9	55,000000
1576577774446	45980	10	-1,000000
1576577774446	45980	11	-88,000000
1576577774446	45980	12	-181,000000
1576577774446	45980	13	-258,000000
1576577774446	45980	14	-308,000000
1576577774446	45980	15	-335,000000
1576577774544	46043	0	-349,000000
1576577774544	46043	1	-350,000000
1576577774544	46043	2	-331,000000
1576577774544	46043	3	-277,000000
1576577774544	46043	4	-180,000000
1576577774544	46043	5	-68,000000
1576577774544	46043	6	29,000000
1576577774544	46043	7	93,000000
1576577774544	46043	8	125,000000
1576577774544	46043	9	131,000000
1576577774544	46043	10	123,000000
1576577774544	46043	11	103,000000
1576577774544	46043	12	72,000000
1576577774544	46043	13	34,000000
1576577774544	46043	14	-12,000000
1576577774544	46043	15	-51,000000
1576577774619	46105	0	-68,000000
1576577774619	46105	1	-53,000000
1576577774619	46105	2	-29,000000
1576577774619	46105	3	-25,000000
1576577774619	46105	4	-57,000000
1576577774619	46105	5	-106,000000
1576577774619	46105	6	-127,000000
1576577774619	46105	7	-105,000000
1576577774619	46105	8	-62,000000
1576577774619	46105	9	-44,000000
1576577774619	46105	10	-68,000000
1576577774619	46105	11	-105,000000
1576577774619	46105	12	-103,000000
1576577774619	46105	13	-50,000000
1576577774619	46105	14	24,000000
1576577774619	46105	15	57,000000
1576577774651	46168	0	33,000000
1576577774651	46168	1	-28,000000
1576577774651	46168	2	-87,000000
1576577774651	46168	3	-134,000000
1576577774651	46168	4	-171,000000
1576577774651	46168	5	-205,000000
1576577774651	46168	6	-233,000000
1576577774651	46168	7	-275,000000
1576577774651	46168	8	-331,000000
1576577774651	46168	9	-388,000000
1576577774651	46168	10	-420,000000
1576577774651	46168	11	-406,000000
1576577774651	46168	12	-352,000000
1576577774651	46168	13	-285,000000
1576577774651	46168	14	-236,000000
1576577774651	46168	15	-222,000000
1576577774821	46230	0	-231,000000
1576577774821	46230	1	-233,000000
1576577774821	46230	2	-203,000000
1576577774821	46230	3	-139,000000
1576577774821	46230	4	-63,000000
1576577774821	46230	5	-16,000000
1576577774821	46230	6	-7,000000
1576577774821	46230	7	-27,000000
1576577774821	46230	8	-39,000000
1576577774821	46230	9	8,000000
1576577774821	46230	10	202,000000
1576577774821	46230	11	607,000000
1576577774821	46230	12	1222,000000
1576577774821	46230	13	1942,000000
1576577774821	46230	14	2589,000000
1576577774821	46230	15	2923,000000
1576577774845	46293	0	2730,000000
1576577774845	46293	1	1839,000000
1576577774845	46293	2	304,000000
1576577774845	46293	3	-1528,000000
1576577774845	46293	4	-3127,000000
1576577774845	46293	5	-4034,000000
1576577774845	46293	6	-4117,000000
1576577774845	46293	7	-3561,000000
1576577774845	46293	8	-2638,000000
1576577774845	46293	9	-1595,000000
1576577774845	46293	10	-612,000000
1576577774845	46293	11	166,000000
1576577774845	46293	12	621,000000
1576577774845	46293	13	752,000000
1576577774845	46293	14	680,000000
1576577774845	46293	15	551,000000
1576577774866	46355	0	430,000000
1576577774866	46355	1	319,000000
1576577774866	46355	2	225,000000
1576577774866	46355	3	158,000000
1576577774866	46355	4	133,000000
1576577774866	46355	5	143,000000
1576577774866	46355	6	164,000000
1576577774866	46355	7	187,000000
1576577774866	46355	8	210,000000
1576577774866	46355	9	253,000000
1576577774866	46355	10	306,000000
1576577774866	46355	11	337,000000
1576577774866	46355	12	303,000000
1576577774866	46355	13	217,000000
1576577774866	46355	14	91,000000
1576577774866	46355	15	-35,000000
1576577774922	46418	0	-136,000000
1576577774922	46418	1	-203,000000
1576577774922	46418	2	-227,000000
1576577774922	46418	3	-224,000000
1576577774922	46418	4	-198,000000
1576577774922	46418	5	-160,000000
1576577774922	46418	6	-111,000000
1576577774922	46418	7	-47,000000
1576577774922	46418	8	42,000000
1576577774922	46418	9	140,000000
1576577774922	46418	10	231,000000
1576577774922	46418	11	309,000000
1576577774922	46418	12	377,000000
1576577774922	46418	13	436,000000
1576577774922	46418	14	468,000000
1576577774922	46418	15	439,000000
1576577774965	46480	0	332,000000
1576577774965	46480	1	192,000000
1576577774965	46480	2	73,000000
1576577774965	46480	3	13,000000
1576577774965	46480	4	-13,000000
1576577774965	46480	5	-43,000000
1576577774965	46480	6	-90,000000
1576577774965	46480	7	-134,000000
1576577774965	46480	8	-150,000000
1576577774965	46480	9	-120,000000
1576577774965	46480	10	-44,000000
1576577774965	46480	11	47,000000
1576577774965	46480	12	134,000000
1576577774965	46480	13	195,000000
1576577774965	46480	14	209,000000
1576577774965	46480	15	161,000000
1576577774999	46543	0	60,000000
1576577774999	46543	1	-54,000000
1576577774999	46543	2	-164,000000
1576577774999	46543	3	-252,000000
1576577774999	46543	4	-322,000000
1576577774999	46543	5	-376,000000
1576577774999	46543	6	-410,000000
1576577774999	46543	7	-426,000000
1576577774999	46543	8	-451,000000
1576577774999	46543	9	-492,000000
1576577774999	46543	10	-557,000000
1576577774999	46543	11	-621,000000
1576577774999	46543	12	-680,000000
1576577774999	46543	13	-735,000000
1576577774999	46543	14	-788,000000
1576577774999	46543	15	-836,000000
1576577775067	46605	0	-851,000000
1576577775067	46605	1	-821,000000
1576577775067	46605	2	-748,000000
1576577775067	46605	3	-650,000000
1576577775067	46605	4	-568,000000
1576577775067	46605	5	-535,000000
1576577775067	46605	6	-553,000000
1576577775067	46605	7	-589,000000
1576577775067	46605	8	-602,000000
1576577775067	46605	9	-552,000000
1576577775067	46605	10	-451,000000
1576577775067	46605	11	-314,000000
1576577775067	46605	12	-173,000000
1576577775067	46605	13	-42,000000
1576577775067	46605	14	53,000000
1576577775067	46605	15	116,000000
1576577775148	46668	0	139,000000
1576577775148	46668	1	143,000000
1576577775148	46668	2	123,000000
1576577775148	46668	3	80,000000
1576577775148	46668	4	23,000000
1576577775148	46668	5	-21,000000
1576577775148	46668	6	-35,000000
1576577775148	46668	7	-14,000000
1576577775148	46668	8	32,000000
1576577775148	46668	9	79,000000
1576577775148	46668	10	105,000000
1576577775148	46668	11	89,000000
1576577775148	46668	12	34,000000
1576577775148	46668	13	-56,000000
1576577775148	46668	14	-169,000000
1576577775148	46668	15	-284,000000
1576577775231	46730	0	-373,000000
1576577775231	46730	1	-416,000000
1576577775231	46730	2	-399,000000
1576577775231	46730	3	-331,000000
1576577775231	46730	4	-227,000000
1576577775231	46730	5	-136,000000
1576577775231	46730	6	-74,000000
1576577775231	46730	7	-55,000000
1576577775231	46730	8	-74,000000
1576577775231	46730	9	-116,000000
1576577775231	46730	10	-161,000000
1576577775231	46730	11	-193,000000
1576577775231	46730	12	-199,000000
1576577775231	46730	13	-190,000000
1576577775231	46730	14	-170,000000
1576577775231	46730	15	-148,000000
1576577775270	46793	0	-129,000000
1576577775270	46793	1	-98,000000
1576577775270	46793	2	-44,000000
1576577775270	46793	3	23,000000
1576577775270	46793	4	82,000000
1576577775270	46793	5	113,000000
1576577775270	46793	6	107,000000
1576577775270	46793	7	70,000000
1576577775270	46793	8	23,000000
1576577775270	46793	9	-8,000000
1576577775270	46793	10	-7,000000
1576577775270	46793	11	24,000000
1576577775270	46793	12	54,000000
1576577775270	46793	13	62,000000
1576577775270	46793	14	26,000000
1576577775270	46793	15	-48,000000
1576577775350	46855	0	-131,000000
1576577775350	46855	1	-207,000000
1576577775350	46855	2	-250,000000
1576577775350	46855	3	-256,000000
1576577775350	46855	4	-225,000000
1576577775350	46855	5	-170,000000
1576577775350	46855	6	-115,000000
1576577775350	46855	7	-83,000000
1576577775350	46855	8	-91,000000
1576577775350	46855	9	-148,000000
1576577775350	46855	10	-240,000000
1576577775350	46855	11	-327,000000
1576577775350	46855	12	-378,000000
1576577775350	46855	13	-376,000000
1576577775350	46855	14	-348,000000
1576577775350	46855	15	-315,000000
1576577775490	46918	0	-286,000000
1576577775490	46918	1	-264,000000
1576577775490	46918	2	-241,000000
1576577775490	46918	3	-209,000000
1576577775490	46918	4	-175,000000
1576577775490	46918	5	-136,000000
1576577775490	46918	6	-94,000000
1576577775490	46918	7	-56,000000
1576577775490	46918	8	-15,000000
1576577775490	46918	9	38,000000
1576577775490	46918	10	106,000000
1576577775490	46918	11	193,000000
1576577775490	46918	12	352,000000
1576577775490	46918	13	663,000000
1576577775490	46918	14	1155,000000
1576577775490	46918	15	1732,000000
1576577775516	46980	0	2192,000000
1576577775516	46980	1	2293,000000
1576577775516	46980	2	1914,000000
1576577775516	46980	3	1013,000000
1576577775516	46980	4	-283,000000
1576577775516	46980	5	-1694,000000
1576577775516	46980	6	-2863,000000
1576577775516	46980	7	-3499,000000
1576577775516	46980	8	-3520,000000
1576577775516	46980	9	-3087,000000
1576577775516	46980	10	-2407,000000
1576577775516	46980	11	-1591,000000
1576577775516	46980	12	-702,000000
1576577775516	46980	13	174,000000
1576577775516	46980	14	855,000000
1576577775516	46980	15	1200,000000
1576577775528	47043	0	1210,000000
1576577775528	47043	1	1011,000000
1576577775528	47043	2	752,000000
1576577775528	47043	3	525,000000
1576577775528	47043	4	356,000000
1576577775528	47043	5	241,000000
1576577775528	47043	6	177,000000
1576577775528	47043	7	154,000000
1576577775528	47043	8	137,000000
1576577775528	47043	9	96,000000
1576577775528	47043	10	27,000000
1576577775528	47043	11	-25,000000
1576577775528	47043	12	-41,000000
1576577775528	47043	13	-3,000000
1576577775528	47043	14	71,000000
1576577775528	47043	15	147,000000
1576577775576	47105	0	205,000000
1576577775576	47105	1	240,000000
1576577775576	47105	2	272,000000
1576577775576	47105	3	324,000000
1576577775576	47105	4	388,000000
1576577775576	47105	5	430,000000
1576577775576	47105	6	406,000000
1576577775576	47105	7	300,000000
1576577775576	47105	8	152,000000
1576577775576	47105	9	15,000000
1576577775576	47105	10	-80,000000
1576577775576	47105	11	-125,000000
1576577775576	47105	12	-108,000000
1576577775576	47105	13	-36,000000
1576577775576	47105	14	68,000000
1576577775576	47105	15	174,000000
1576577775654	47168	0	233,000000
1576577775654	47168	1	215,000000
1576577775654	47168	2	139,000000
1576577775654	47168	3	13,000000
1576577775654	47168	4	-121,000000
1576577775654	47168	5	-229,000000
1576577775654	47168	6	-276,000000
1576577775654	47168	7	-205,000000
1576577775654	47168	8	-7,000000
1576577775654	47168	9	277,000000
1576577775654	47168	10	528,000000
1576577775654	47168	11	632,000000
1576577775654	47168	12	528,000000
1576577775654	47168	13	290,000000
1576577775654	47168	14	61,000000
1576577775654	47168	15	-19,000000
1576577775702	47230	0	88,000000
1576577775702	47230	1	314,000000
1576577775702	47230	2	552,000000
1576577775702	47230	3	709,000000
1576577775702	47230	4	705,000000
1576577775702	47230	5	535,000000
1576577775702	47230	6	280,000000
1576577775702	47230	7	60,000000
1576577775702	47230	8	-71,000000
1576577775702	47230	9	-171,000000
1576577775702	47230	10	-376,000000
1576577775702	47230	11	-744,000000
1576577775702	47230	12	-1203,000000
1576577775702	47230	13	-1609,000000
1576577775702	47230	14	-1830,000000
1576577775702	47230	15	-1832,000000
1576577775751	47293	0	-1651,000000
1576577775751	47293	1	-1343,000000
1576577775751	47293	2	-972,000000
1576577775751	47293	3	-611,000000
1576577775751	47293	4	-338,000000
1576577775751	47293	5	-199,000000
1576577775751	47293	6	-188,000000
1576577775751	47293	7	-254,000000
1576577775751	47293	8	-360,000000
1576577775751	47293	9	-486,000000
1576577775751	47293	10	-625,000000
1576577775751	47293	11	-761,000000
1576577775751	47293	12	-852,000000
1576577775751	47293	13	-866,000000
1576577775751	47293	14	-801,000000
1576577775751	47293	15	-680,000000
1576577775892	47355	0	-537,000000
1576577775892	47355	1	-396,000000
1576577775892	47355	2	-267,000000
1576577775892	47355	3	-170,000000
1576577775892	47355	4	-110,000000
1576577775892	47355	5	-93,000000
1576577775892	47355	6	-99,000000
1576577775892	47355	7	-105,000000
1576577775892	47355	8	-89,000000
1576577775892	47355	9	-53,000000
1576577775892	47355	10	-24,000000
1576577775892	47355	11	-20,000000
1576577775892	47355	12	-29,000000
1576577775892	47355	13	-53,000000
1576577775892	47355	14	-77,000000
1576577775892	47355	15	-110,000000
1576577775911	47418	0	-153,000000
1576577775911	47418	1	-206,000000
1576577775911	47418	2	-263,000000
1576577775911	47418	3	-311,000000
1576577775911	47418	4	-338,000000
1576577775911	47418	5	-341,000000
1576577775911	47418	6	-328,000000
1576577775911	47418	7	-314,000000
1576577775911	47418	8	-300,000000
1576577775911	47418	9	-277,000000
1576577775911	47418	10	-248,000000
1576577775911	47418	11	-206,000000
1576577775911	47418	12	-174,000000
1576577775911	47418	13	-150,000000
1576577775911	47418	14	-144,000000
1576577775911	47418	15	-142,000000
1576577776102	47480	0	-140,000000
1576577776102	47480	1	-125,000000
1576577776102	47480	2	-114,000000
1576577776102	47480	3	-111,000000
1576577776102	47480	4	-133,000000
1576577776102	47480	5	-169,000000
1576577776102	47480	6	-214,000000
1576577776102	47480	7	-243,000000
1576577776102	47480	8	-240,000000
1576577776102	47480	9	-201,000000
1576577776102	47480	10	-133,000000
1576577776102	47480	11	-56,000000
1576577776102	47480	12	-1,000000
1576577776102	47480	13	32,000000
1576577776102	47480	14	43,000000
1576577776102	47480	15	55,000000
1576577776119	47543	0	72,000000
1576577776119	47543	1	99,000000
1576577776119	47543	2	104,000000
1576577776119	47543	3	59,000000
1576577776119	47543	4	-47,000000
1576577776119	47543	5	-191,000000
1576577776119	47543	6	-300,000000
1576577776119	47543	7	-306,000000
1576577776119	47543	8	-188,000000
1576577776119	47543	9	16,000000
1576577776119	47543	10	233,000000
1576577776119	47543	11	394,000000
1576577776119	47543	12	464,000000
1576577776119	47543	13	444,000000
1576577776119	47543	14	346,000000
1576577776119	47543	15	199,000000
1576577776135	47605	0	31,000000
1576577776135	47605	1	-137,000000
1576577776135	47605	2	-299,000000
1576577776135	47605	3	-427,000000
1576577776135	47605	4	-490,000000
1576577776135	47605	5	-477,000000
1576577776135	47605	6	-400,000000
1576577776135	47605	7	-303,000000
1576577776135	47605	8	-219,000000
1576577776135	47605	9	-163,000000
1576577776135	47605	10	-110,000000
1576577776135	47605	11	-43,000000
1576577776135	47605	12	16,000000
1576577776135	47605	13	48,000000
1576577776135	47605	14	33,000000
1576577776135	47605	15	-9,000000
1576577776151	47668	0	-47,000000
1576577776151	47668	1	-23,000000
1576577776151	47668	2	152,000000
1576577776151	47668	3	541,000000
1576577776151	47668	4	1150,000000
1576577776151	47668	5	1890,000000
1576577776151	47668	6	2552,000000
1576577776151	47668	7	2864,000000
1576577776151	47668	8	2624,000000
1576577776151	47668	9	1716,000000
1576577776151	47668	10	213,000000
1576577776151	47668	11	-1566,000000
1576577776151	47668	12	-3130,000000
1576577776151	47668	13	-4016,000000
1576577776151	47668	14	-4064,000000
1576577776151	47668	15	-3417,000000
1576577776213	47730	0	-2387,000000
1576577776213	47730	1	-1298,000000
1576577776213	47730	2	-379,000000
1576577776213	47730	3	276,000000
1576577776213	47730	4	629,000000
1576577776213	47730	5	720,000000
1576577776213	47730	6	693,000000
1576577776213	47730	7	634,000000
1576577776213	47730	8	569,000000
1576577776213	47730	9	473,000000
1576577776213	47730	10	355,000000
1576577776213	47730	11	234,000000
1576577776213	47730	12	136,000000
1576577776213	47730	13	66,000000
1576577776213	47730	14	29,000000
1576577776213	47730	15	13,000000
1576577776262	47793	0	19,000000
1576577776262	47793	1	32,000000
1576577776262	47793	2	47,000000
1576577776262	47793	3	59,000000
1576577776262	47793	4	85,000000
1576577776262	47793	5	120,000000
1576577776262	47793	6	155,000000
1576577776262	47793	7	165,000000
1576577776262	47793	8	136,000000
1576577776262	47793	9	77,000000
1576577776262	47793	10	9,000000
1576577776262	47793	11	-27,000000
1576577776262	47793	12	-25,000000
1576577776262	47793	13	23,000000
1576577776262	47793	14	86,000000
1576577776262	47793	15	147,000000
1576577776363	47855	0	191,000000
1576577776363	47855	1	210,000000
1576577776363	47855	2	204,000000
1576577776363	47855	3	178,000000
1576577776363	47855	4	133,000000
1576577776363	47855	5	89,000000
1576577776363	47855	6	48,000000
1576577776363	47855	7	10,000000
1576577776363	47855	8	-26,000000
1576577776363	47855	9	-38,000000
1576577776363	47855	10	-14,000000
1576577776363	47855	11	60,000000
1576577776363	47855	12	165,000000
1576577776363	47855	13	262,000000
1576577776363	47855	14	332,000000
1576577776363	47855	15	380,000000
1576577776402	47919	0	415,000000
1576577776402	47919	1	444,000000
1576577776402	47919	2	457,000000
1576577776402	47919	3	438,000000
1576577776402	47919	4	372,000000
1576577776402	47919	5	276,000000
1576577776402	47919	6	183,000000
1576577776402	47919	7	127,000000
1576577776402	47919	8	115,000000
1576577776402	47919	9	110,000000
1576577776402	47919	10	83,000000
1576577776402	47919	11	19,000000
1576577776402	47919	12	-41,000000
1576577776402	47919	13	-71,000000
1576577776402	47919	14	-63,000000
1576577776402	47919	15	-67,000000
1576577776450	47980	0	-147,000000
1576577776450	47980	1	-340,000000
1576577776450	47980	2	-606,000000
1576577776450	47980	3	-866,000000
1576577776450	47980	4	-1020,000000
1576577776450	47980	5	-1015,000000
1576577776450	47980	6	-890,000000
1576577776450	47980	7	-730,000000
1576577776450	47980	8	-615,000000
1576577776450	47980	9	-575,000000
1576577776450	47980	10	-583,000000
1576577776450	47980	11	-613,000000
1576577776450	47980	12	-652,000000
1576577776450	47980	13	-687,000000
1576577776450	47980	14	-714,000000
1576577776450	47980	15	-713,000000
1576577776519	48043	0	-683,000000
1576577776519	48043	1	-628,000000
1576577776519	48043	2	-577,000000
1576577776519	48043	3	-531,000000
1576577776519	48043	4	-505,000000
1576577776519	48043	5	-498,000000
1576577776519	48043	6	-510,000000
1576577776519	48043	7	-535,000000
1576577776519	48043	8	-555,000000
1576577776519	48043	9	-578,000000
1576577776519	48043	10	-592,000000
1576577776519	48043	11	-603,000000
1576577776519	48043	12	-619,000000
1576577776519	48043	13	-641,000000
1576577776519	48043	14	-655,000000
1576577776519	48043	15	-647,000000
1576577776595	48105	0	-584,000000
1576577776595	48105	1	-477,000000
1576577776595	48105	2	-335,000000
1576577776595	48105	3	-194,000000
1576577776595	48105	4	-73,000000
1576577776595	48105	5	19,000000
1576577776595	48105	6	74,000000
1576577776595	48105	7	95,000000
1576577776595	48105	8	85,000000
1576577776595	48105	9	60,000000
1576577776595	48105	10	27,000000
1576577776595	48105	11	-12,000000
1576577776595	48105	12	-50,000000
1576577776595	48105	13	-94,000000
1576577776595	48105	14	-126,000000
1576577776595	48105	15	-135,000000
1576577776830	48168	0	-125,000000
1576577776830	48168	1	-108,000000
1576577776830	48168	2	-88,000000
1576577776830	48168	3	-59,000000
1576577776830	48168	4	-7,000000
1576577776830	48168	5	69,000000
1576577776830	48168	6	142,000000
1576577776830	48168	7	185,000000
1576577776830	48168	8	169,000000
1576577776830	48168	9	95,000000
1576577776830	48168	10	5,000000
1576577776830	48168	11	-59,000000
1576577776830	48168	12	-64,000000
1576577776830	48168	13	-30,000000
1576577776830	48168	14	13,000000
1576577776830	48168	15	35,000000
1576577776835	48230	0	18,000000
1576577776835	48230	1	-14,000000
1576577776835	48230	2	-37,000000
1576577776835	48230	3	-41,000000
1576577776835	48230	4	-28,000000
1576577776835	48230	5	2,000000
1576577776835	48230	6	37,000000
1576577776835	48230	7	64,000000
1576577776835	48230	8	68,000000
1576577776835	48230	9	48,000000
1576577776835	48230	10	-4,000000
1576577776835	48230	11	-59,000000
1576577776835	48230	12	-99,000000
1576577776835	48230	13	-102,000000
1576577776835	48230	14	-79,000000
1576577776835	48230	15	-61,000000
1576577776859	48293	0	-74,000000
1576577776859	48293	1	-129,000000
1576577776859	48293	2	-211,000000
1576577776859	48293	3	-283,000000
1576577776859	48293	4	-320,000000
1576577776859	48293	5	-309,000000
1576577776859	48293	6	-264,000000
1576577776859	48293	7	-204,000000
1576577776859	48293	8	-155,000000
1576577776859	48293	9	-128,000000
1576577776859	48293	10	-130,000000
1576577776859	48293	11	-150,000000
1576577776859	48293	12	-171,000000
1576577776859	48293	13	-185,000000
1576577776859	48293	14	-186,000000
1576577776859	48293	15	-178,000000
1576577776871	48355	0	-155,000000
1576577776871	48355	1	-115,000000
1576577776871	48355	2	-58,000000
1576577776871	48355	3	6,000000
1576577776871	48355	4	117,000000
1576577776871	48355	5	354,000000
1576577776871	48355	6	764,000000
1576577776871	48355	7	1319,000000
1576577776871	48355	8	1871,000000
1576577776871	48355	9	2161,000000
1576577776871	48355	10	1996,000000
1576577776871	48355	11	1337,000000
1576577776871	48355	12	268,000000
1576577776871	48355	13	-1009,000000
1576577776871	48355	14	-2232,000000
1576577776871	48355	15	-3135,000000
1576577776897	48418	0	-3510,000000
1576577776897	48418	1	-3334,000000
1576577776897	48418	2	-2707,000000
1576577776897	48418	3	-1811,000000
1576577776897	48418	4	-874,000000
1576577776897	48418	5	-68,000000
1576577776897	48418	6	520,000000
1576577776897	48418	7	843,000000
1576577776897	48418	8	936,000000
1576577776897	48418	9	897,000000
1576577776897	48418	10	785,000000
1576577776897	48418	11	641,000000
1576577776897	48418	12	496,000000
1576577776897	48418	13	391,000000
1576577776897	48418	14	355,000000
1576577776897	48418	15	370,000000
1576577776965	48480	0	403,000000
1576577776965	48480	1	409,000000
1576577776965	48480	2	386,000000
1576577776965	48480	3	327,000000
1576577776965	48480	4	245,000000
1576577776965	48480	5	165,000000
1576577776965	48480	6	110,000000
1576577776965	48480	7	105,000000
1576577776965	48480	8	129,000000
1576577776965	48480	9	135,000000
1576577776965	48480	10	72,000000
1576577776965	48480	11	-63,000000
1576577776965	48480	12	-241,000000
1576577776965	48480	13	-407,000000
1576577776965	48480	14	-518,000000
1576577776965	48480	15	-533,000000
1576577776998	48543	0	-430,000000
1576577776998	48543	1	-219,000000
1576577776998	48543	2	49,000000
1576577776998	48543	3	285,000000
1576577776998	48543	4	419,000000
1576577776998	48543	5	437,000000
1576577776998	48543	6	374,000000
1576577776998	48543	7	293,000000
1576577776998	48543	8	248,000000
1576577776998	48543	9	280,000000
1576577776998	48543	10	390,000000
1576577776998	48543	11	541,000000
1576577776998	48543	12	659,000000
1576577776998	48543	13	689,000000
1576577776998	48543	14	633,000000
1576577776998	48543	15	537,000000
1576577777102	48605	0	446,000000
1576577777102	48605	1	359,000000
1576577777102	48605	2	255,000000
1576577777102	48605	3	119,000000
1576577777102	48605	4	-28,000000
1576577777102	48605	5	-147,000000
1576577777102	48605	6	-200,000000
1576577777102	48605	7	-171,000000
1576577777102	48605	8	-77,000000
1576577777102	48605	9	35,000000
1576577777102	48605	10	124,000000
1576577777102	48605	11	138,000000
1576577777102	48605	12	62,000000
1576577777102	48605	13	-108,000000
1576577777102	48605	14	-338,000000
1576577777102	48605	15	-601,000000
1576577777152	48668	0	-841,000000
1576577777152	48668	1	-1032,000000
1576577777152	48668	2	-1151,000000
1576577777152	48668	3	-1201,000000
1576577777152	48668	4	-1192,000000
1576577777152	48668	5	-1126,000000
1576577777152	48668	6	-993,000000
1576577777152	48668	7	-786,000000
1576577777152	48668	8	-513,000000
1576577777152	48668	9	-218,000000
1576577777152	48668	10	15,000000
1576577777152	48668	11	123,000000
1576577777152	48668	12	94,000000
1576577777152	48668	13	-36,000000
1576577777152	48668	14	-216,000000
1576577777152	48668	15	-386,000000
1576577777198	48730	0	-513,000000
1576577777198	48730	1	-586,000000
1576577777198	48730	2	-615,000000
1576577777198	48730	3	-627,000000
1576577777198	48730	4	-629,000000
1576577777198	48730	5	-623,000000
1576577777198	48730	6	-599,000000
1576577777198	48730	7	-556,000000
1576577777198	48730	8	-508,000000
1576577777198	48730	9	-461,000000
1576577777198	48730	10	-431,000000
1576577777198	48730	11	-417,000000
1576577777198	48730	12	-413,000000
1576577777198	48730	13	-424,000000
1576577777198	48730	14	-447,000000
1576577777198	48730	15	-475,000000
1576577777398	48793	0	-500,000000
1576577777398	48793	1	-489,000000
1576577777398	48793	2	-431,000000
1576577777398	48793	3	-338,000000
1576577777398	48793	4	-240,000000
1576577777398	48793	5	-178,000000
1576577777398	48793	6	-152,000000
1576577777398	48793	7	-130,000000
1576577777398	48793	8	-82,000000
1576577777398	48793	9	-3,000000
1576577777398	48793	10	87,000000
1576577777398	48793	11	162,000000
1576577777398	48793	12	205,000000
1576577777398	48793	13	215,000000
1576577777398	48793	14	184,000000
1576577777398	48793	15	123,000000
1576577777452	48855	0	46,000000
1576577777452	48855	1	-22,000000
1576577777452	48855	2	-65,000000
1576577777452	48855	3	-89,000000
1576577777452	48855	4	-94,000000
1576577777452	48855	5	-82,000000
1576577777452	48855	6	-65,000000
1576577777452	48855	7	-54,000000
1576577777452	48855	8	-51,000000
1576577777452	48855	9	-60,000000
1576577777452	48855	10	-65,000000
1576577777452	48855	11	-54,000000
1576577777452	48855	12	-48,000000
1576577777452	48855	13	-60,000000
1576577777452	48855	14	-103,000000
1576577777452	48855	15	-159,000000
1576577777486	48918	0	-196,000000
1576577777486	48918	1	-193,000000
1576577777486	48918	2	-149,000000
1576577777486	48918	3	-92,000000
1576577777486	48918	4	-43,000000
1576577777486	48918	5	-7,000000
1576577777486	48918	6	16,000000
1576577777486	48918	7	22,000000
1576577777486	48918	8	1,000000
1576577777486	48918	9	-41,000000
1576577777486	48918	10	-95,000000
1576577777486	48918	11	-136,000000
1576577777486	48918	12	-155,000000
1576577777486	48918	13	-152,000000
1576577777486	48918	14	-147,000000
1576577777486	48918	15	-148,000000
1576577777508	48980	0	-163,000000
1576577777508	48980	1	-189,000000
1576577777508	48980	2	-220,000000
1576577777508	48980	3	-249,000000
1576577777508	48980	4	-277,000000
1576577777508	48980	5	-302,000000
1576577777508	48980	6	-323,000000
1576577777508	48980	7	-333,000000
1576577777508	48980	8	-336,000000
1576577777508	48980	9	-326,000000
1576577777508	48980	10	-300,000000
1576577777508	48980	11	-249,000000
1576577777508	48980	12	-177,000000
1576577777508	48980	13	-91,000000
1576577777508	48980	14	-10,000000
1576577777508	48980	15	51,000000
1576577777521	49043	0	78,000000
1576577777521	49043	1	73,000000
1576577777521	49043	2	51,000000
1576577777521	49043	3	64,000000
1576577777521	49043	4	186,000000
1576577777521	49043	5	469,000000
1576577777521	49043	6	916,000000
1576577777521	49043	7	1511,000000
1576577777521	49043	8	2146,000000
1576577777521	49043	9	2620,000000
1576577777521	49043	10	2727,000000
1576577777521	49043	11	2225,000000
1576577777521	49043	12	998,000000
1576577777521	49043	13	-793,000000
1576577777521	49043	14	-2660,000000
1576577777521	49043	15	-3973,000000
1576577777564	49105	0	-4332,000000
1576577777564	49105	1	-3769,000000
1576577777564	49105	2	-2645,000000
1576577777564	49105	3	-1431,000000
1576577777564	49105	4	-444,000000
1576577777564	49105	5	257,000000
1576577777564	49105	6	678,000000
1576577777564	49105	7	840,000000
1576577777564	49105	8	799,000000
1576577777564	49105	9	629,000000
1576577777564	49105	10	405,000000
1576577777564	49105	11	207,000000
1576577777564	49105	12	114,000000
1576577777564	49105	13	168,000000
1576577777564	49105	14	343,000000
1576577777564	49105	15	571,000000
1576577777678	49168	0	743,000000
1576577777678	49168	1	786,000000
1576577777678	49168	2	668,000000
1576577777678	49168	3	416,000000
1576577777678	49168	4	124,000000
1576577777678	49168	5	-115,000000
1576577777678	49168	6	-252,000000
1576577777678	49168	7	-277,000000
1576577777678	49168	8	-227,000000
1576577777678	49168	9	-141,000000
1576577777678	49168	10	-55,000000
1576577777678	49168	11	11,000000
1576577777678	49168	12	42,000000
1576577777678	49168	13	42,000000
1576577777678	49168	14	20,000000
1576577777678	49168	15	-7,000000
1576577777702	49230	0	-19,000000
1576577777702	49230	1	-5,000000
1576577777702	49230	2	20,000000
1576577777702	49230	3	46,000000
1576577777702	49230	4	54,000000
1576577777702	49230	5	37,000000
1576577777702	49230	6	1,000000
1576577777702	49230	7	-44,000000
1576577777702	49230	8	-86,000000
1576577777702	49230	9	-125,000000
1576577777702	49230	10	-160,000000
1576577777702	49230	11	-182,000000
1576577777702	49230	12	-178,000000
1576577777702	49230	13	-158,000000
1576577777702	49230	14	-133,000000
1576577777702	49230	15	-117,000000
1576577777747	49293	0	-104,000000
1576577777747	49293	1	-73,000000
1576577777747	49293	2	-16,000000
1576577777747	49293	3	59,000000
1576577777747	49293	4	128,000000
1576577777747	49293	5	168,000000
1576577777747	49293	6	179,000000
1576577777747	49293	7	161,000000
1576577777747	49293	8	124,000000
1576577777747	49293	9	81,000000
1576577777747	49293	10	43,000000
1576577777747	49293	11	19,000000
1576577777747	49293	12	-9,000000
1576577777747	49293	13	-55,000000
1576577777747	49293	14	-116,000000
1576577777747	49293	15	-184,000000
1576577777818	49355	0	-263,000000
1576577777818	49355	1	-350,000000
1576577777818	49355	2	-462,000000
1576577777818	49355	3	-595,000000
1576577777818	49355	4	-723,000000
1576577777818	49355	5	-825,000000
1576577777818	49355	6	-891,000000
1576577777818	49355	7	-918,000000
1576577777818	49355	8	-912,000000
1576577777818	49355	9	-880,000000
1576577777818	49355	10	-829,000000
1576577777818	49355	11	-764,000000
1576577777818	49355	12	-694,000000
1576577777818	49355	13	-606,000000
1576577777818	49355	14	-512,000000
1576577777818	49355	15	-417,000000
1576577777948	49418	0	-345,000000
1576577777948	49418	1	-313,000000
1576577777948	49418	2	-310,000000
1576577777948	49418	3	-310,000000
1576577777948	49418	4	-287,000000
1576577777948	49418	5	-246,000000
1576577777948	49418	6	-198,000000
1576577777948	49418	7	-155,000000
1576577777948	49418	8	-121,000000
1576577777948	49418	9	-92,000000
1576577777948	49418	10	-78,000000
1576577777948	49418	11	-86,000000
1576577777948	49418	12	-121,000000
1576577777948	49418	13	-165,000000
1576577777948	49418	14	-205,000000
1576577777948	49418	15	-233,000000
1576577778084	49480	0	-242,000000
1576577778084	49480	1	-229,000000
1576577778084	49480	2	-185,000000
1576577778084	49480	3	-114,000000
1576577778084	49480	4	-24,000000
1576577778084	49480	5	57,000000
1576577778084	49480	6	110,000000
1576577778084	49480	7	125,000000
1576577778084	49480	8	101,000000
1576577778084	49480	9	45,000000
1576577778084	49480	10	-27,000000
1576577778084	49480	11	-105,000000
1576577778084	49480	12	-165,000000
1576577778084	49480	13	-189,000000
1576577778084	49480	14	-181,000000
1576577778084	49480	15	-152,000000
